 # Detector n:            1   HeIIcoll  
 # N. of energy intervals         260
  1.0000100E-14  2.0000000E-13  1.8993824E+10   60.11527    
  2.0000000E-13  2.9297300E-13  1.7550340E+10   41.82180    
  2.9297300E-13  4.2916701E-13  7.2054735E+10   45.77335    
  4.2916701E-13  6.2867300E-13  9.8445238E+10   10.41233    
  6.2867300E-13  9.2092198E-13  1.2185930E+11   21.69701    
  9.2092198E-13  1.3490300E-12  1.4596178E+11   12.33236    
  1.3490300E-12  1.9761499E-12  1.8379722E+11   7.014707    
  1.9761499E-12  2.8947901E-12  1.9798971E+11   8.523305    
  2.8947901E-12  4.2404799E-12  2.4071181E+11   3.571644    
  4.2404799E-12  6.2117499E-12  3.0759308E+11   5.797344    
  6.2117499E-12  9.0993801E-12  3.1675918E+11   3.180756    
  9.0993801E-12  1.3329400E-11  2.8610861E+11   2.610060    
  1.3329400E-11  1.9525799E-11  2.3982116E+11  0.6332380    
  1.9525799E-11  2.8602700E-11  1.4002715E+11   2.749829    
  2.8602700E-11  4.1899099E-11  6.6468577E+10   1.953085    
  4.1899099E-11  6.1376598E-11  2.6011800E+10   4.841736    
  6.1376598E-11  8.9908601E-11  1.0555894E+10   9.052239    
  8.9908601E-11  1.3170399E-10  3.4576648E+09   3.612628    
  1.3170399E-10  1.9292901E-10  1.2543416E+09   7.476853    
  1.9292901E-10  2.8261499E-10  6.4145856E+08   5.806218    
  2.8261499E-10  4.1399401E-10  3.4097549E+08   2.322893    
  4.1399401E-10  5.3157900E-10  2.3493189E+08   2.702013    
  5.3157900E-10  6.2506200E-10  1.6261574E+08   8.917351    
  6.2506200E-10  6.8256001E-10  1.5058328E+08   14.59476    
  6.8256001E-10  8.3368101E-10  1.2798457E+08   7.128340    
  8.3368101E-10  8.7642499E-10  1.0571103E+08   6.207804    
  8.7642499E-10  1.1253500E-09  1.0288269E+08   10.92959    
  1.1253500E-09  1.4449800E-09  6.9580672E+07   2.659110    
  1.4449800E-09  1.8553900E-09  5.5664264E+07   7.048382    
  1.8553900E-09  2.3823701E-09  4.6418808E+07   5.289112    
  2.3823701E-09  3.0590199E-09  3.8130576E+07   5.507970    
  3.0590199E-09  3.9278598E-09  2.5452650E+07   3.100620    
  3.9278598E-09  5.0434799E-09  2.1016290E+07   4.287854    
  5.0434799E-09  6.4759500E-09  1.4463409E+07   1.459627    
  6.4759500E-09  8.3152898E-09  1.1417261E+07   4.554200    
  8.3152898E-09  1.0677000E-08   7736516.       4.024509    
  1.0677000E-08  1.3709600E-08   6648662.       3.540986    
  1.3709600E-08  1.7603501E-08   4872635.       2.850339    
  1.7603501E-08  2.2603301E-08   3823043.       5.428996    
  2.2603301E-08  2.9023200E-08   2704831.       6.715052    
  2.9023200E-08  3.7266499E-08   2072625.       11.70726    
  3.7266499E-08  4.7851199E-08   1673738.       7.888652    
  4.7851199E-08  6.1442101E-08   1102613.       8.514423    
  6.1442101E-08  7.8893301E-08   995163.8       6.874577    
  7.8893301E-08  1.0130100E-07   690672.9       9.785340    
  1.0130100E-07  1.3007300E-07   513568.2       2.722540    
  1.3007300E-07  1.6701701E-07   345001.1       5.710057    
  1.6701701E-07  2.1445400E-07   264262.3      0.5586601    
  2.1445400E-07  2.7536399E-07   205814.1       4.595516    
  2.7536399E-07  3.5357499E-07   155810.7       11.20321    
  3.5357499E-07  4.5399901E-07   119257.2       13.78514    
  4.5399901E-07  5.8294700E-07   92877.66       10.82003    
  5.8294700E-07  7.4851800E-07   68951.27       2.529512    
  7.4851800E-07  9.6111603E-07   45793.45       8.171090    
  9.6111603E-07  1.2341000E-06   33611.68       3.607492    
  1.2341000E-06  1.3638900E-06   29142.16       12.28380    
  1.3638900E-06  1.5073300E-06   22462.48       10.34990    
  1.5073300E-06  1.5846100E-06   26284.97       6.602946    
  1.5846100E-06  1.6658601E-06   24138.57       17.49636    
  1.6658601E-06  1.8410600E-06   23988.35       9.428091    
  1.8410600E-06  2.0346799E-06   20259.45       9.221388    
  2.0346799E-06  2.2486699E-06   16694.48       14.09403    
  2.2486699E-06  2.4851699E-06   12736.20       21.93949    
  2.4851699E-06  2.6125899E-06   12644.43       14.85065    
  2.6125899E-06  2.7465401E-06   10982.11       18.02828    
  2.7465401E-06  2.8634900E-06   14974.59       34.17601    
  2.8634900E-06  3.0353899E-06   10595.43       13.32347    
  3.0353899E-06  3.3546301E-06   10752.42       15.76412    
  3.3546301E-06  3.7074401E-06   5361.205       16.42486    
  3.7074401E-06  4.0973500E-06   9342.965       13.68856    
  4.0973500E-06  4.3074201E-06   7336.962       5.248637    
  4.3074201E-06  4.5282700E-06   5075.586       35.35534    
  4.5282700E-06  5.0045101E-06   5148.937       9.759000    
  5.0045101E-06  5.5308401E-06   5324.627       15.81139    
  5.5308401E-06  6.2672698E-06   4281.346       11.11111    
  6.2672698E-06  7.1017398E-06   3442.628       19.66404    
  7.1017398E-06  8.0473301E-06   2964.132       9.128709    
  8.0473301E-06  9.1188203E-06   2681.387       8.330855    
  9.1188203E-06  1.0333000E-05   1846.945       33.46329    
  1.0333000E-05  1.1708800E-05   1884.738       17.85966    
  1.1708800E-05  1.3267800E-05   1078.929       18.00206    
  1.3267800E-05  1.5034400E-05   1031.527       4.441157    
  1.5034400E-05  1.7036200E-05   770.3292       27.27273    
  1.7036200E-05  1.9304500E-05   957.9979       21.31637    
  1.9304500E-05  2.1334799E-05   690.5427       8.164966    
  2.1334799E-05  2.1874899E-05   1038.320       35.35534    
  2.1874899E-05  2.3578599E-05   658.3104       10.20621    
  2.3578599E-05  2.4175501E-05   704.6086       33.33334    
  2.4175501E-05  2.4787500E-05   114.5358       99.00000    
  2.4787500E-05  2.6058400E-05   386.0767       27.35506    
  2.6058400E-05  2.8087899E-05   656.2059       13.24532    
  2.8087899E-05  3.1827800E-05   562.2302       15.86984    
  3.1827800E-05  3.4306700E-05   339.2755       30.42903    
  3.4306700E-05  3.5175199E-05   242.0864       63.82847    
  3.5175199E-05  3.6065601E-05   157.4193       57.73503    
  3.6065601E-05  4.0867701E-05   145.9349       47.60952    
  4.0867701E-05  4.6309200E-05   296.1126       29.59504    
  4.6309200E-05  5.2475199E-05   261.1924       37.14784    
  5.2475199E-05  5.6562199E-05   154.1294       37.95167    
  5.6562199E-05  5.9462200E-05   289.5378       40.82483    
  5.9462200E-05  6.2510902E-05   252.3813       40.31556    
  6.2510902E-05  6.7379500E-05   129.2258       21.27616    
  6.7379500E-05  7.6350902E-05   140.1056       11.11111    
  7.6350902E-05  8.6516899E-05   102.8620       33.33333    
  8.6516899E-05  9.8036500E-05   42.25490       14.28571    
  9.8036500E-05  1.1109000E-04   53.07442       41.63332    
  1.1109000E-04  1.1678600E-04   96.93557       20.41241    
  1.1678600E-04  1.2277300E-04   46.00392       40.82483    
  1.2277300E-04  1.2906799E-04   109.1142       20.00000    
  1.2906799E-04  1.3568600E-04   20.70425       99.00000    
  1.3568600E-04  1.4264201E-04   19.64506       57.73503    
  1.4264201E-04  1.4995600E-04   18.63058       57.73503    
  1.4995600E-04  1.5764400E-04   35.30555       70.71068    
  1.5764400E-04  1.6163501E-04   16.93515       99.00000    
  1.6163501E-04  1.6572700E-04   32.94426       99.00000    
  1.6572700E-04  1.6992200E-04   16.02301       99.00000    
  1.6992200E-04  1.7422400E-04   31.15994       57.73503    
  1.7422400E-04  1.8315599E-04   37.35434       20.00000    
  1.8315599E-04  1.9254700E-04   14.12511       57.73503    
  1.9254700E-04  2.0241900E-04   20.02543       33.33333    
  2.0241900E-04  2.1279699E-04   18.87478       63.82847    
  2.1279699E-04  2.2370800E-04   17.76320       63.82847    
  2.2370800E-04  2.3517800E-04   5.570635       99.00000    
  2.3517800E-04  2.4723500E-04   26.19495       60.00000    
  2.4723500E-04  2.5991100E-04   34.41238       35.95159    
  2.5991100E-04  2.7323700E-04   13.78247       33.33333    
  2.7323700E-04  2.8015400E-04   8.730185       99.00000    
  2.8015400E-04  2.8724599E-04   8.435439       99.00000    
  2.8724599E-04  2.9451799E-04   8.148893       99.00000    
  2.9451799E-04  3.0197401E-04   7.870344       99.00000    
  3.0197401E-04  3.0961799E-04   0.000000       0.000000    
  3.0961799E-04  3.1745600E-04   7.291389       99.00000    
  3.1745600E-04  3.3373301E-04   13.75154       70.71068    
  3.3373301E-04  3.5084400E-04   28.60355       11.11111    
  3.5084400E-04  3.6883200E-04   11.67785       40.82483    
  3.6883200E-04  3.8774201E-04   10.67109       0.000000    
  3.8774201E-04  4.0762199E-04   2.434363       99.00000    
  4.0762199E-04  4.2852099E-04   4.397209       57.73503    
  4.2852099E-04  4.5049199E-04   5.942758       33.33333    
  4.5049199E-04  4.7358900E-04   5.308064       33.33333    
  4.7358900E-04  4.9787102E-04   3.138768       57.73503    
  4.9787102E-04  5.1047403E-04   5.723754       99.00000    
  5.1047403E-04  5.2339700E-04   5.343519       57.73503    
  5.2339700E-04  5.3664698E-04   12.47968       38.29708    
  5.3664698E-04  5.5023201E-04   9.334071       40.82483    
  5.5023201E-04  5.7844300E-04   2.087370       57.73503    
  5.7844300E-04  6.0810102E-04   6.276170       48.79500    
  6.0810102E-04  6.3927902E-04   2.290908       63.82847    
  6.3927902E-04  6.7205500E-04   1.932053       33.33333    
  6.7205500E-04  7.0651202E-04   3.234523       43.03315    
  7.0651202E-04  7.4273598E-04   1.793741       40.82483    
  7.4273598E-04  7.8081700E-04   2.974060       20.41241    
  7.8081700E-04  8.2085002E-04   3.387327       17.40777    
  8.2085002E-04  8.6293602E-04   1.792399       14.28571    
  8.6293602E-04  9.0717903E-04   2.362902       50.06882    
  9.0717903E-04  9.5369201E-04   1.097401       57.73503    
  9.5369201E-04  9.6163998E-04   1.012160       99.00000    
  9.6163998E-04  9.7783399E-04   2.917094       19.24501    
  9.7783399E-04  1.0025901E-03  0.6160181       99.00000    
  1.0025901E-03  1.0539900E-03   1.843071       14.72965    
  1.0539900E-03  1.1080300E-03   1.429951       54.29234    
  1.1080300E-03  1.1648400E-03  0.3677499       33.33333    
  1.1648400E-03  1.1943300E-03  0.4768015       57.73503    
  1.1943300E-03  1.2245600E-03   0.000000       0.000000    
  1.2245600E-03  1.2873500E-03   1.169966       25.81989    
  1.2873500E-03  1.3533500E-03  0.8210711       27.35506    
  1.3533500E-03  1.4227401E-03  0.5938837       20.00000    
  1.4227401E-03  1.4956900E-03  0.8469175       27.35506    
  1.4956900E-03  1.5335500E-03   1.721362       27.35506    
  1.5335500E-03  1.5723699E-03  0.7457417       33.33333    
  1.5723699E-03  1.6121800E-03  0.5024043       99.00000    
  1.6121800E-03  1.6529900E-03  0.7615665       63.82847    
  1.6529900E-03  1.7377400E-03   1.158723       11.11111    
  1.7377400E-03  1.8268300E-03  0.3929035       63.82847    
  1.8268300E-03  1.8730800E-03   1.059084       40.82483    
  1.8730800E-03  1.9205000E-03   1.065365       70.71068    
  1.9205000E-03  1.9691200E-03  0.2676640       99.00000    
  1.9691200E-03  2.0189700E-03   0.000000       0.000000    
  2.0189700E-03  2.1224800E-03  0.4046914       63.82847    
  2.1224800E-03  2.2313001E-03  0.6759009       20.00000    
  2.2313001E-03  2.2688799E-03  0.8090680       99.00000    
  2.2688799E-03  2.3068599E-03   0.000000       0.000000    
  2.3068599E-03  2.3457000E-03  0.8073587       57.73503    
  2.3457000E-03  2.3652499E-03   0.000000       0.000000    
  2.3652499E-03  2.3852000E-03   0.000000       0.000000    
  2.3852000E-03  2.4251300E-03   0.000000       0.000000    
  2.4251300E-03  2.4659701E-03  0.4009719       99.00000    
  2.4659701E-03  2.5923999E-03   1.330519       47.60952    
  2.5923999E-03  2.7253199E-03  0.2629003       57.73503    
  2.7253199E-03  2.8650500E-03  0.5179609       57.73503    
  2.8650500E-03  3.0119400E-03  0.5088515       57.73503    
  3.0119400E-03  3.0881900E-03  0.5013018       57.73503    
  3.0881900E-03  3.1663701E-03  0.4960223       57.73503    
  3.1663701E-03  3.2465300E-03   0.000000       0.000000    
  3.2465300E-03  3.3287101E-03  0.4849294       57.73503    
  3.3287101E-03  3.4993801E-03  0.3570749       33.33333    
  3.4993801E-03  3.6787901E-03  0.3481389       63.82847    
  3.6787901E-03  3.8674099E-03  0.2260349       57.73503    
  3.8674099E-03  4.0656999E-03  0.2199951       57.73503    
  4.0656999E-03  4.2741499E-03  0.3210734       63.82847    
  4.2741499E-03  4.4932901E-03  0.3123702       63.82847    
  4.4932901E-03  4.6070400E-03  0.2040442       99.00000    
  4.6070400E-03  4.7236700E-03   0.000000       0.000000    
  4.7236700E-03  4.8432499E-03  0.5958927       63.82847    
  4.8432499E-03  4.9658502E-03  0.1960324       99.00000    
  4.9658502E-03  5.2204598E-03  9.6114002E-02   99.00000    
  5.2204598E-03  5.4881200E-03  0.2811812       63.82847    
  5.4881200E-03  5.7695000E-03  0.1829757       57.73503    
  5.7695000E-03  5.9155500E-03   0.000000       0.000000    
  5.9155500E-03  6.0653100E-03  0.3555983       99.00000    
  6.0653100E-03  6.2188501E-03  0.1758614       99.00000    
  6.2188501E-03  6.3762800E-03   0.000000       0.000000    
  6.3762800E-03  6.5377001E-03   0.000000       0.000000    
  6.5377001E-03  6.5923799E-03   0.000000       0.000000    
  6.5923799E-03  6.6475999E-03  0.5108544       99.00000    
  6.6475999E-03  6.7031998E-03   0.000000       0.000000    
  6.7031998E-03  6.8728901E-03   0.000000       0.000000    
  6.8728901E-03  7.0468802E-03   0.000000       0.000000    
  7.0468802E-03  7.2252699E-03  0.3312941       99.00000    
  7.2252699E-03  7.4081798E-03  0.3283257       99.00000    
  7.4081798E-03  7.5957198E-03  0.4882431       63.82847    
  7.5957198E-03  7.7880099E-03  0.1613862       99.00000    
  7.7880099E-03  7.9851598E-03  0.1600989       99.00000    
  7.9851598E-03  8.1873098E-03   0.000000       0.000000    
  8.1873098E-03  8.3945701E-03  0.1576614       99.00000    
  8.3945701E-03  8.6070802E-03   0.000000       0.000000    
  8.6070802E-03  8.8249696E-03   0.000000       0.000000    
  8.8249696E-03  9.0483697E-03   0.000000       0.000000    
  9.0483697E-03  9.2774397E-03  0.1534276       99.00000    
  9.2774397E-03  9.5122904E-03   0.000000       0.000000    
  9.5122904E-03  9.7530996E-03  0.1516200       99.00000    
  9.7530996E-03  9.9999998E-03   0.000000       0.000000    
  9.9999998E-03  1.0253200E-02   0.000000       0.000000    
  1.0253200E-02  1.0512700E-02   0.000000       0.000000    
  1.0512700E-02  1.0778800E-02  0.2971288       99.00000    
  1.0778800E-02  1.1051700E-02   0.000000       0.000000    
  1.1051700E-02  1.1331500E-02   0.000000       0.000000    
  1.1331500E-02  1.1618300E-02  0.1467213       99.00000    
  1.1618300E-02  1.1912500E-02   0.000000       0.000000    
  1.1912500E-02  1.2214000E-02   0.000000       0.000000    
  1.2214000E-02  1.2523200E-02   0.000000       0.000000    
  1.2523200E-02  1.2840200E-02   0.000000       0.000000    
  1.2840200E-02  1.3165300E-02   0.000000       0.000000    
  1.3165300E-02  1.3498600E-02   0.000000       0.000000    
  1.3498600E-02  1.3840300E-02  0.1436973       99.00000    
  1.3840300E-02  1.4190700E-02   0.000000       0.000000    
  1.4190700E-02  1.4549900E-02  0.1431196       99.00000    
  1.4549900E-02  1.4918300E-02   0.000000       0.000000    
  1.4918300E-02  1.5295900E-02   0.000000       0.000000    
  1.5295900E-02  1.5683100E-02  0.1424095       99.00000    
  1.5683100E-02  1.6080100E-02   0.000000       0.000000    
  1.6080100E-02  1.6487200E-02   0.000000       0.000000    
  1.6487200E-02  1.6904600E-02  0.4253601       63.82847    
  1.6904600E-02  1.7332500E-02   0.000000       0.000000    
  1.7332500E-02  1.7771300E-02   0.000000       0.000000    
  1.7771300E-02  1.8221200E-02   0.000000       0.000000    
  1.8221200E-02  1.8682500E-02   0.000000       0.000000    
  1.8682500E-02  1.9155400E-02   0.000000       0.000000    
  1.9155400E-02  1.9640300E-02  0.1402762       99.00000    
  1.9640300E-02  2.0000000E-02   0.000000       0.000000    
