 # Detector n:  1  HeIInflux 
 # N. of energy intervals 260
  1.0000100E-14  2.0000000E-13  1.5493784E+10   24.93524    
  2.0000000E-13  2.9297300E-13  1.8168373E+10   22.82990    
  2.9297300E-13  4.2916701E-13  4.1422025E+10   17.69597    
  4.2916701E-13  6.2867300E-13  6.5380717E+10   8.784604    
  6.2867300E-13  9.2092198E-13  1.0514131E+11   6.553721    
  9.2092198E-13  1.3490300E-12  1.3741397E+11   4.809106    
  1.3490300E-12  1.9761499E-12  1.9289391E+11   3.467715    
  1.9761499E-12  2.8947901E-12  2.4928120E+11   2.145303    
  2.8947901E-12  4.2404799E-12  3.1921806E+11   1.419376    
  4.2404799E-12  6.2117499E-12  3.5310010E+11   1.592721    
  6.2117499E-12  9.0993801E-12  3.6289724E+11   1.624885    
  9.0993801E-12  1.3329400E-11  3.3493343E+11   1.641808    
  1.3329400E-11  1.9525799E-11  2.6085949E+11   1.151330    
  1.9525799E-11  2.8602700E-11  1.5686115E+11   1.182683    
  2.8602700E-11  4.1899099E-11  7.5926045E+10   1.291627    
  4.1899099E-11  6.1376598E-11  3.1979375E+10   1.326668    
  6.1376598E-11  8.9908601E-11  1.4569644E+10   1.956625    
  8.9908601E-11  1.3170399E-10  7.2322811E+09   1.945390    
  1.3170399E-10  1.9292901E-10  4.4442143E+09   1.061097    
  1.9292901E-10  2.8261499E-10  2.8662502E+09   1.184565    
  2.8261499E-10  4.1399401E-10  1.8630486E+09   1.106830    
  4.1399401E-10  5.3157900E-10  1.3752535E+09   1.077113    
  5.3157900E-10  6.2506200E-10  1.1248517E+09   1.038785    
  6.2506200E-10  6.8256001E-10  9.8858746E+08   1.697613    
  6.8256001E-10  8.3368101E-10  8.6420070E+08   1.215079    
  8.3368101E-10  8.7642499E-10  7.5086221E+08   2.444715    
  8.7642499E-10  1.1253500E-09  6.4572966E+08  0.9402404    
  1.1253500E-09  1.4449800E-09  5.0490243E+08   1.384462    
  1.4449800E-09  1.8553900E-09  3.9194944E+08  0.9751343    
  1.8553900E-09  2.3823701E-09  3.0791770E+08   1.098033    
  2.3823701E-09  3.0590199E-09  2.3873235E+08  0.9381672    
  3.0590199E-09  3.9278598E-09  1.8778074E+08  0.9601936    
  3.9278598E-09  5.0434799E-09  1.4582710E+08  0.9937360    
  5.0434799E-09  6.4759500E-09  1.1615760E+08   1.100997    
  6.4759500E-09  8.3152898E-09  8.9997232E+07  0.9744227    
  8.3152898E-09  1.0677000E-08  6.9364560E+07   1.284521    
  1.0677000E-08  1.3709600E-08  5.4463432E+07   1.201383    
  1.3709600E-08  1.7603501E-08  4.2966428E+07  0.6258548    
  1.7603501E-08  2.2603301E-08  3.3251748E+07  0.5839809    
  2.2603301E-08  2.9023200E-08  2.6822054E+07  0.8943440    
  2.9023200E-08  3.7266499E-08  2.0756852E+07   1.210220    
  3.7266499E-08  4.7851199E-08  1.6443786E+07   1.083475    
  4.7851199E-08  6.1442101E-08  1.2712820E+07  0.6280813    
  6.1442101E-08  7.8893301E-08  1.0058457E+07   1.069190    
  7.8893301E-08  1.0130100E-07   7762527.      0.9771144    
  1.0130100E-07  1.3007300E-07   6061890.      0.4766043    
  1.3007300E-07  1.6701701E-07   4724484.      0.9764136    
  1.6701701E-07  2.1445400E-07   3681268.      0.7789930    
  2.1445400E-07  2.7536399E-07   2809480.      0.8102238    
  2.7536399E-07  3.5357499E-07   2240537.       1.195188    
  3.5357499E-07  4.5399901E-07   1700532.      0.8907316    
  4.5399901E-07  5.8294700E-07   1331778.      0.5738831    
  5.8294700E-07  7.4851800E-07   1025016.      0.6850397    
  7.4851800E-07  9.6111603E-07   792326.1      0.6324637    
  9.6111603E-07  1.2341000E-06   618179.9      0.6586349    
  1.2341000E-06  1.3638900E-06   519579.2       1.253816    
  1.3638900E-06  1.5073300E-06   473768.7       1.624758    
  1.5073300E-06  1.5846100E-06   417535.7       2.662157    
  1.5846100E-06  1.6658601E-06   426578.3       2.036525    
  1.6658601E-06  1.8410600E-06   375052.3       1.414743    
  1.8410600E-06  2.0346799E-06   347126.6      0.9007809    
  2.0346799E-06  2.2486699E-06   301431.4       2.354011    
  2.2486699E-06  2.4851699E-06   267650.6       1.975890    
  2.4851699E-06  2.6125899E-06   250799.3       1.335394    
  2.6125899E-06  2.7465401E-06   244787.8       2.358793    
  2.7465401E-06  2.8634900E-06   238022.2       2.078165    
  2.8634900E-06  3.0353899E-06   216248.3       3.039792    
  3.0353899E-06  3.3546301E-06   203479.1       1.308906    
  3.3546301E-06  3.7074401E-06   178161.6       1.525864    
  3.7074401E-06  4.0973500E-06   159513.4       1.954263    
  4.0973500E-06  4.3074201E-06   150862.0       2.765481    
  4.3074201E-06  4.5282700E-06   138709.6       1.724319    
  4.5282700E-06  5.0045101E-06   131913.0       1.934781    
  5.0045101E-06  5.5308401E-06   131092.4      0.8394801    
  5.5308401E-06  6.2672698E-06   91948.23       1.609408    
  6.2672698E-06  7.1017398E-06   91250.20       1.749966    
  7.1017398E-06  8.0473301E-06   80087.20       1.090953    
  8.0473301E-06  9.1188203E-06   71232.15       1.568140    
  9.1188203E-06  1.0333000E-05   60107.71      0.8653290    
  1.0333000E-05  1.1708800E-05   53555.62       1.197259    
  1.1708800E-05  1.3267800E-05   44049.01       1.528292    
  1.3267800E-05  1.5034400E-05   39982.73       1.605806    
  1.5034400E-05  1.7036200E-05   34267.39       1.298946    
  1.7036200E-05  1.9304500E-05   29797.17       1.462846    
  1.9304500E-05  2.1334799E-05   26242.30       1.737367    
  2.1334799E-05  2.1874899E-05   24840.86       2.305623    
  2.1874899E-05  2.3578599E-05   23479.71       1.353504    
  2.3578599E-05  2.4175501E-05   21137.09       3.395319    
  2.4175501E-05  2.4787500E-05   21145.46       3.394242    
  2.4787500E-05  2.6058400E-05   19922.33       1.420123    
  2.6058400E-05  2.8087899E-05   19648.28       2.342256    
  2.8087899E-05  3.1827800E-05   21427.04       1.354241    
  3.1827800E-05  3.4306700E-05   14779.00       2.024688    
  3.4306700E-05  3.5175199E-05   7615.137       3.575531    
  3.5175199E-05  3.6065601E-05   6654.919       4.387672    
  3.6065601E-05  4.0867701E-05   9081.562       1.287357    
  4.0867701E-05  4.6309200E-05   10216.23       1.491355    
  4.6309200E-05  5.2475199E-05   8857.660       1.764780    
  5.2475199E-05  5.6562199E-05   7712.785       1.858342    
  5.6562199E-05  5.9462200E-05   7254.216       3.169234    
  5.9462200E-05  6.2510902E-05   7185.890       2.205287    
  6.2510902E-05  6.7379500E-05   6610.034       2.265022    
  6.7379500E-05  7.6350902E-05   6554.267       1.384556    
  7.6350902E-05  8.6516899E-05   5066.329       1.811291    
  8.6516899E-05  9.8036500E-05   2867.519       1.701246    
  9.8036500E-05  1.1109000E-04   3414.314       1.619757    
  1.1109000E-04  1.1678600E-04   3311.689       2.772412    
  1.1678600E-04  1.2277300E-04   2223.163       2.385809    
  1.2277300E-04  1.2906799E-04   3162.841       3.254394    
  1.2906799E-04  1.3568600E-04   3380.294       2.851897    
  1.3568600E-04  1.4264201E-04   2507.995       3.722713    
  1.4264201E-04  1.4995600E-04   1943.624       2.858657    
  1.4995600E-04  1.5764400E-04   1740.337       1.788513    
  1.5764400E-04  1.6163501E-04   1383.280       6.413918    
  1.6163501E-04  1.6572700E-04   1695.259       3.564306    
  1.6572700E-04  1.6992200E-04   1767.086       3.924262    
  1.6992200E-04  1.7422400E-04   1840.706       4.644750    
  1.7422400E-04  1.8315599E-04   1829.435       2.915648    
  1.8315599E-04  1.9254700E-04   1781.700       2.796971    
  1.9254700E-04  2.0241900E-04   1652.858       3.201826    
  2.0241900E-04  2.1279699E-04   1309.121       3.129958    
  2.1279699E-04  2.2370800E-04   1277.990       2.312220    
  2.2370800E-04  2.3517800E-04   1268.329       2.459127    
  2.3517800E-04  2.4723500E-04   1181.219       3.629050    
  2.4723500E-04  2.5991100E-04   1263.598       2.625213    
  2.5991100E-04  2.7323700E-04   1314.304       2.359342    
  2.7323700E-04  2.8015400E-04   1192.470       3.114810    
  2.8015400E-04  2.8724599E-04   868.7380       3.338652    
  2.8724599E-04  2.9451799E-04   860.0051       5.112355    
  2.9451799E-04  3.0197401E-04   841.1033       5.977288    
  3.0197401E-04  3.0961799E-04   804.5378       4.388219    
  3.0961799E-04  3.1745600E-04   759.0138       4.204879    
  3.1745600E-04  3.3373301E-04   790.7743       3.768356    
  3.3373301E-04  3.5084400E-04   791.3476       2.153270    
  3.5084400E-04  3.6883200E-04   748.8026       4.228209    
  3.6883200E-04  3.8774201E-04   646.5260       3.938930    
  3.8774201E-04  4.0762199E-04   610.4836       2.393137    
  4.0762199E-04  4.2852099E-04   518.1289       2.547320    
  4.2852099E-04  4.5049199E-04   473.3314       3.442969    
  4.5049199E-04  4.7358900E-04   454.4105       3.041779    
  4.7358900E-04  4.9787102E-04   467.3125       3.292224    
  4.9787102E-04  5.1047403E-04   477.8203       4.128570    
  5.1047403E-04  5.2339700E-04   461.7914       5.444326    
  5.2339700E-04  5.3664698E-04   363.7334       6.143569    
  5.3664698E-04  5.5023201E-04   375.1238       4.689434    
  5.5023201E-04  5.7844300E-04   360.6826       2.553491    
  5.7844300E-04  6.0810102E-04   334.1383       3.761036    
  6.0810102E-04  6.3927902E-04   284.2348       2.667141    
  6.3927902E-04  6.7205500E-04   264.3320       4.401193    
  6.7205500E-04  7.0651202E-04   265.9113       4.823114    
  7.0651202E-04  7.4273598E-04   229.9342       3.251278    
  7.4273598E-04  7.8081700E-04   199.8189       4.190802    
  7.8081700E-04  8.2085002E-04   152.2453       4.581985    
  8.2085002E-04  8.6293602E-04   148.6955       4.684876    
  8.6293602E-04  9.0717903E-04   145.4234       5.942955    
  9.0717903E-04  9.5369201E-04   132.2206       4.258296    
  9.5369201E-04  9.6163998E-04   108.4898       10.60887    
  9.6163998E-04  9.7783399E-04   132.7827       6.964534    
  9.7783399E-04  1.0025901E-03   106.5903       7.614845    
  1.0025901E-03  1.0539900E-03   100.5878       4.668805    
  1.0539900E-03  1.1080300E-03   102.4738       4.177177    
  1.1080300E-03  1.1648400E-03   87.63902       4.362772    
  1.1648400E-03  1.1943300E-03   76.81242       6.156642    
  1.1943300E-03  1.2245600E-03   77.99036       6.033792    
  1.2245600E-03  1.2873500E-03   72.30230       4.243040    
  1.2873500E-03  1.3533500E-03   72.70293       5.550416    
  1.3533500E-03  1.4227401E-03   71.56186       4.319870    
  1.4227401E-03  1.4956900E-03   69.93414       3.122426    
  1.4956900E-03  1.5335500E-03   69.69676       7.909370    
  1.5335500E-03  1.5723699E-03   71.63277       6.655341    
  1.5723699E-03  1.6121800E-03   60.44582       6.926530    
  1.6121800E-03  1.6529900E-03   58.47945       6.245868    
  1.6529900E-03  1.7377400E-03   55.27218       4.018295    
  1.7377400E-03  1.8268300E-03   54.38321       4.050151    
  1.8268300E-03  1.8730800E-03   51.03689       5.892157    
  1.8730800E-03  1.9205000E-03   39.68413       6.736290    
  1.9205000E-03  1.9691200E-03   45.44780       7.183618    
  1.9691200E-03  2.0189700E-03   46.01338       5.515368    
  2.0189700E-03  2.1224800E-03   40.49642       6.280355    
  2.1224800E-03  2.2313001E-03   42.76963       5.525735    
  2.2313001E-03  2.2688799E-03   39.38904       9.129198    
  2.2688799E-03  2.3068599E-03   39.52694       7.370997    
  2.3068599E-03  2.3457000E-03   30.20489       11.64222    
  2.3457000E-03  2.3652499E-03   33.32449       11.00829    
  2.3652499E-03  2.3852000E-03   33.97954       14.87387    
  2.3852000E-03  2.4251300E-03   34.81770       11.94064    
  2.4251300E-03  2.4659701E-03   29.76757       5.900519    
  2.4659701E-03  2.5923999E-03   29.89570       5.312769    
  2.5923999E-03  2.7253199E-03   24.58580       5.665696    
  2.7253199E-03  2.8650500E-03   21.76475       6.712441    
  2.8650500E-03  3.0119400E-03   16.84955       5.982070    
  3.0119400E-03  3.0881900E-03   17.94991       11.02863    
  3.0881900E-03  3.1663701E-03   16.95866       7.428652    
  3.1663701E-03  3.2465300E-03   14.01989       11.92047    
  3.2465300E-03  3.3287101E-03   14.30571       10.47400    
  3.3287101E-03  3.4993801E-03   13.06060       5.927986    
  3.4993801E-03  3.6787901E-03   14.21679       6.252819    
  3.6787901E-03  3.8674099E-03   11.24928       8.563904    
  3.8674099E-03  4.0656999E-03   10.67301       5.657817    
  4.0656999E-03  4.2741499E-03   11.50866       7.629392    
  4.2741499E-03  4.4932901E-03   10.15823       7.873034    
  4.4932901E-03  4.6070400E-03   9.965175       9.357036    
  4.6070400E-03  4.7236700E-03   8.914254       10.25786    
  4.7236700E-03  4.8432499E-03   9.018218       12.43331    
  4.8432499E-03  4.9658502E-03   8.872651       13.25206    
  4.9658502E-03  5.2204598E-03   9.128102       5.364400    
  5.2204598E-03  5.4881200E-03   8.162360       5.349606    
  5.4881200E-03  5.7695000E-03   6.191208       9.920633    
  5.7695000E-03  5.9155500E-03   6.524730       15.12943    
  5.9155500E-03  6.0653100E-03   6.243633       8.657482    
  6.0653100E-03  6.2188501E-03   4.436330       12.20709    
  6.2188501E-03  6.3762800E-03   4.936528       14.54838    
  6.3762800E-03  6.5377001E-03   6.252097       8.760951    
  6.5377001E-03  6.5923799E-03   3.999919       15.57475    
  6.5923799E-03  6.6475999E-03   4.907725       23.74881    
  6.6475999E-03  6.7031998E-03   4.297219       20.26654    
  6.7031998E-03  6.8728901E-03   5.352787       13.19906    
  6.8728901E-03  7.0468802E-03   5.693795       9.925203    
  7.0468802E-03  7.2252699E-03   4.415388       11.61794    
  7.2252699E-03  7.4081798E-03   4.520185       13.61108    
  7.4081798E-03  7.5957198E-03   4.415332       8.273237    
  7.5957198E-03  7.7880099E-03   3.899333       9.885689    
  7.7880099E-03  7.9851598E-03   3.939335       9.337750    
  7.9851598E-03  8.1873098E-03   3.740025       11.73919    
  8.1873098E-03  8.3945701E-03   3.187892       12.95170    
  8.3945701E-03  8.6070802E-03   3.699898       13.54590    
  8.6070802E-03  8.8249696E-03   3.297758       15.50724    
  8.8249696E-03  9.0483697E-03   3.694393       8.535478    
  9.0483697E-03  9.2774397E-03   3.464719       9.959312    
  9.2774397E-03  9.5122904E-03   2.967233       11.96756    
  9.5122904E-03  9.7530996E-03   3.133116       17.15279    
  9.7530996E-03  9.9999998E-03   2.500623       11.19836    
  9.9999998E-03  1.0253200E-02   1.939379       14.59383    
  1.0253200E-02  1.0512700E-02   2.748887       12.61255    
  1.0512700E-02  1.0778800E-02   3.402476       14.60225    
  1.0778800E-02  1.1051700E-02   2.902217       11.00355    
  1.1051700E-02  1.1331500E-02   2.495776       8.779373    
  1.1331500E-02  1.1618300E-02   2.693364       13.01977    
  1.1618300E-02  1.1912500E-02   2.411726       13.15090    
  1.1912500E-02  1.2214000E-02   2.531907       7.720979    
  1.2214000E-02  1.2523200E-02   2.165006       12.80646    
  1.2523200E-02  1.2840200E-02   1.593424       16.31147    
  1.2840200E-02  1.3165300E-02   2.087232       10.19029    
  1.3165300E-02  1.3498600E-02   1.756502       12.07356    
  1.3498600E-02  1.3840300E-02   1.882897       13.07396    
  1.3840300E-02  1.4190700E-02   1.589704       15.96823    
  1.4190700E-02  1.4549900E-02   1.848392       9.963645    
  1.4549900E-02  1.4918300E-02   1.876116       13.18748    
  1.4918300E-02  1.5295900E-02   1.911438       10.35056    
  1.5295900E-02  1.5683100E-02   1.369746       5.449852    
  1.5683100E-02  1.6080100E-02   1.841768       13.18720    
  1.6080100E-02  1.6487200E-02   1.476168       13.50076    
  1.6487200E-02  1.6904600E-02   1.364064       13.74874    
  1.6904600E-02  1.7332500E-02   1.389082       9.835428    
  1.7332500E-02  1.7771300E-02   1.224555       17.94822    
  1.7771300E-02  1.8221200E-02   1.398226       15.54448    
  1.8221200E-02  1.8682500E-02   1.158407       7.921379    
  1.8682500E-02  1.9155400E-02   1.402200       10.96278    
  1.9155400E-02  1.9640300E-02   1.167044       15.71716    
  1.9640300E-02  2.0000000E-02   1.187932       15.57129    
