 # Detector n:  1  HeIInflux 
 # N. of energy intervals 260
  1.0000100E-14  2.0000000E-13  2.2707026E+10   20.05432    
  2.0000000E-13  2.9297300E-13  8.9662480E+10   23.85701    
  2.9297300E-13  4.2916701E-13  1.0171054E+11   9.687868    
  4.2916701E-13  6.2867300E-13  1.5277133E+11   9.706964    
  6.2867300E-13  9.2092198E-13  2.1229509E+11   5.399462    
  9.2092198E-13  1.3490300E-12  2.9613575E+11   4.685210    
  1.3490300E-12  1.9761499E-12  3.9881435E+11   2.999107    
  1.9761499E-12  2.8947901E-12  5.2496663E+11   2.161474    
  2.8947901E-12  4.2404799E-12  5.9330167E+11   1.357484    
  4.2404799E-12  6.2117499E-12  6.8454233E+11   1.525086    
  6.2117499E-12  9.0993801E-12  7.2730706E+11   1.773886    
  9.0993801E-12  1.3329400E-11  6.5521176E+11   1.258883    
  1.3329400E-11  1.9525799E-11  5.0012465E+11   1.433253    
  1.9525799E-11  2.8602700E-11  3.0895496E+11  0.7365497    
  2.8602700E-11  4.1899099E-11  1.5050057E+11   1.053026    
  4.1899099E-11  6.1376598E-11  6.2756671E+10   1.395310    
  6.1376598E-11  8.9908601E-11  2.3776006E+10   2.377914    
  8.9908601E-11  1.3170399E-10  8.4020552E+09   2.867817    
  1.3170399E-10  1.9292901E-10  2.9682903E+09   3.698635    
  1.9292901E-10  2.8261499E-10  1.4718673E+09   1.965392    
  2.8261499E-10  4.1399401E-10  8.2193222E+08   1.501416    
  4.1399401E-10  5.3157900E-10  5.8023040E+08   1.647937    
  5.3157900E-10  6.2506200E-10  4.4806173E+08   2.603168    
  6.2506200E-10  6.8256001E-10  4.0622906E+08   2.569214    
  6.8256001E-10  8.3368101E-10  3.3869328E+08   1.968151    
  8.3368101E-10  8.7642499E-10  2.8193766E+08   6.053771    
  8.7642499E-10  1.1253500E-09  2.4336224E+08   1.194834    
  1.1253500E-09  1.4449800E-09  1.8460152E+08   2.472823    
  1.4449800E-09  1.8553900E-09  1.4443253E+08   1.626690    
  1.8553900E-09  2.3823701E-09  1.1279322E+08   1.533901    
  2.3823701E-09  3.0590199E-09  8.1538056E+07   1.681806    
  3.0590199E-09  3.9278598E-09  6.1311764E+07   1.767924    
  3.9278598E-09  5.0434799E-09  4.9448416E+07   1.791837    
  5.0434799E-09  6.4759500E-09  3.7384312E+07   1.893039    
  6.4759500E-09  8.3152898E-09  2.8234788E+07   1.859913    
  8.3152898E-09  1.0677000E-08  2.1070298E+07   1.369840    
  1.0677000E-08  1.3709600E-08  1.6596559E+07   1.818664    
  1.3709600E-08  1.7603501E-08  1.2630576E+07   1.775184    
  1.7603501E-08  2.2603301E-08   9724949.       1.437117    
  2.2603301E-08  2.9023200E-08   7074864.       1.863297    
  2.9023200E-08  3.7266499E-08   5510993.       1.657889    
  3.7266499E-08  4.7851199E-08   4222404.       2.478796    
  4.7851199E-08  6.1442101E-08   3119246.       1.656726    
  6.1442101E-08  7.8893301E-08   2451019.       1.463345    
  7.8893301E-08  1.0130100E-07   1810055.       1.541348    
  1.0130100E-07  1.3007300E-07   1396128.       2.772719    
  1.3007300E-07  1.6701701E-07   1071032.       1.534798    
  1.6701701E-07  2.1445400E-07   782236.9       2.103622    
  2.1445400E-07  2.7536399E-07   591042.9       1.712451    
  2.7536399E-07  3.5357499E-07   435833.8       1.570569    
  3.5357499E-07  4.5399901E-07   321841.6       1.669818    
  4.5399901E-07  5.8294700E-07   251026.1       1.738005    
  5.8294700E-07  7.4851800E-07   185399.4       2.539271    
  7.4851800E-07  9.6111603E-07   137779.7       2.110828    
  9.6111603E-07  1.2341000E-06   103593.0       3.726134    
  1.2341000E-06  1.3638900E-06   81677.58       5.407704    
  1.3638900E-06  1.5073300E-06   70189.79       5.690818    
  1.5073300E-06  1.5846100E-06   67188.60       4.114126    
  1.5846100E-06  1.6658601E-06   67169.53       4.754735    
  1.6658601E-06  1.8410600E-06   57346.89       4.612416    
  1.8410600E-06  2.0346799E-06   54925.55       3.775437    
  2.0346799E-06  2.2486699E-06   45481.63       3.778639    
  2.2486699E-06  2.4851699E-06   39478.27       3.968223    
  2.4851699E-06  2.6125899E-06   36573.17       8.919870    
  2.6125899E-06  2.7465401E-06   34286.29       5.213942    
  2.7465401E-06  2.8634900E-06   31706.48       4.687615    
  2.8634900E-06  3.0353899E-06   29025.61       5.731756    
  3.0353899E-06  3.3546301E-06   26537.91       2.589218    
  3.3546301E-06  3.7074401E-06   25109.48       3.132237    
  3.7074401E-06  4.0973500E-06   21223.35       3.561558    
  4.0973500E-06  4.3074201E-06   21466.52       8.148944    
  4.3074201E-06  4.5282700E-06   19080.27       5.158206    
  4.5282700E-06  5.0045101E-06   15849.21       3.952732    
  5.0045101E-06  5.5308401E-06   16654.82       4.452460    
  5.5308401E-06  6.2672698E-06   11217.73       5.377398    
  6.2672698E-06  7.1017398E-06   10758.23       3.054599    
  7.1017398E-06  8.0473301E-06   10360.14       4.367857    
  8.0473301E-06  9.1188203E-06   7756.625       5.167743    
  9.1188203E-06  1.0333000E-05   6777.629       3.024721    
  1.0333000E-05  1.1708800E-05   5912.695       6.223927    
  1.1708800E-05  1.3267800E-05   5166.790       5.743606    
  1.3267800E-05  1.5034400E-05   4361.201       5.243904    
  1.5034400E-05  1.7036200E-05   3428.754       5.229784    
  1.7036200E-05  1.9304500E-05   3266.855       4.573543    
  1.9304500E-05  2.1334799E-05   2700.165       6.193975    
  2.1334799E-05  2.1874899E-05   2733.084       10.93082    
  2.1874899E-05  2.3578599E-05   2202.265       5.896567    
  2.3578599E-05  2.4175501E-05   2359.197       13.32693    
  2.4175501E-05  2.4787500E-05   2140.806       5.407743    
  2.4787500E-05  2.6058400E-05   2102.258       8.060281    
  2.6058400E-05  2.8087899E-05   2021.306       4.350243    
  2.8087899E-05  3.1827800E-05   1889.403       5.256720    
  3.1827800E-05  3.4306700E-05   1165.975       9.507497    
  3.4306700E-05  3.5175199E-05   506.6699       19.83314    
  3.5175199E-05  3.6065601E-05   631.3191       8.514727    
  3.6065601E-05  4.0867701E-05   884.6770       5.351112    
  4.0867701E-05  4.6309200E-05   929.9640       6.253893    
  4.6309200E-05  5.2475199E-05   782.8991       5.695181    
  5.2475199E-05  5.6562199E-05   612.8868       8.832211    
  5.6562199E-05  5.9462200E-05   682.9317       9.539390    
  5.9462200E-05  6.2510902E-05   534.0229       12.74876    
  6.2510902E-05  6.7379500E-05   719.6697       8.359633    
  6.7379500E-05  7.6350902E-05   563.0179       5.894220    
  7.6350902E-05  8.6516899E-05   425.7857       7.283231    
  8.6516899E-05  9.8036500E-05   243.5075       7.645319    
  9.8036500E-05  1.1109000E-04   287.4191       4.412714    
  1.1109000E-04  1.1678600E-04   331.8226       9.584351    
  1.1678600E-04  1.2277300E-04   185.7342       15.06019    
  1.2277300E-04  1.2906799E-04   289.9749       7.920257    
  1.2906799E-04  1.3568600E-04   269.8156       5.366866    
  1.3568600E-04  1.4264201E-04   250.6941       11.57382    
  1.4264201E-04  1.4995600E-04   156.0712       12.94051    
  1.4995600E-04  1.5764400E-04   155.6779       10.48057    
  1.5764400E-04  1.6163501E-04   104.2622       24.27415    
  1.6163501E-04  1.6572700E-04   119.5657       15.53993    
  1.6572700E-04  1.6992200E-04   139.1794       18.03102    
  1.6992200E-04  1.7422400E-04   109.1964       22.52229    
  1.7422400E-04  1.8315599E-04   144.7160       13.89993    
  1.8315599E-04  1.9254700E-04   133.3921       12.87528    
  1.9254700E-04  2.0241900E-04   159.8637       11.32582    
  2.0241900E-04  2.1279699E-04   96.37377       10.46587    
  2.1279699E-04  2.2370800E-04   116.4847       13.58881    
  2.2370800E-04  2.3517800E-04   92.14108       12.63758    
  2.3517800E-04  2.4723500E-04   97.43122       5.665375    
  2.4723500E-04  2.5991100E-04   95.55939       13.33997    
  2.5991100E-04  2.7323700E-04   110.8911       12.24174    
  2.7323700E-04  2.8015400E-04   89.79699       16.97349    
  2.8015400E-04  2.8724599E-04   85.74572       12.70348    
  2.8724599E-04  2.9451799E-04   76.29712       17.13554    
  2.9451799E-04  3.0197401E-04   63.28629       19.39992    
  3.0197401E-04  3.0961799E-04   64.08425       20.03179    
  3.0961799E-04  3.1745600E-04   90.15992       15.49301    
  3.1745600E-04  3.3373301E-04   72.81175       11.14850    
  3.3373301E-04  3.5084400E-04   64.72323       11.64175    
  3.5084400E-04  3.6883200E-04   72.44135       14.50103    
  3.6883200E-04  3.8774201E-04   44.17417       19.03826    
  3.8774201E-04  4.0762199E-04   55.74237       12.62143    
  4.0762199E-04  4.2852099E-04   44.26227       11.51726    
  4.2852099E-04  4.5049199E-04   49.88117       14.81612    
  4.5049199E-04  4.7358900E-04   37.24487       9.325758    
  4.7358900E-04  4.9787102E-04   37.08244       13.96263    
  4.9787102E-04  5.1047403E-04   38.59265       21.42285    
  5.1047403E-04  5.2339700E-04   36.28368       18.47970    
  5.2339700E-04  5.3664698E-04   32.20172       14.35190    
  5.3664698E-04  5.5023201E-04   45.49942       17.34439    
  5.5023201E-04  5.7844300E-04   37.78949       10.08889    
  5.7844300E-04  6.0810102E-04   35.63146       11.13538    
  6.0810102E-04  6.3927902E-04   32.51227       8.597319    
  6.3927902E-04  6.7205500E-04   27.08696       11.06420    
  6.7205500E-04  7.0651202E-04   23.62126       12.97829    
  7.0651202E-04  7.4273598E-04   30.77333       12.56965    
  7.4273598E-04  7.8081700E-04   16.59601       10.79142    
  7.8081700E-04  8.2085002E-04   20.07721       12.79665    
  8.2085002E-04  8.6293602E-04   16.66044       15.81863    
  8.6293602E-04  9.0717903E-04   12.91615       14.58607    
  9.0717903E-04  9.5369201E-04   11.37482       9.305782    
  9.5369201E-04  9.6163998E-04   15.58634       34.98953    
  9.6163998E-04  9.7783399E-04   11.46852       26.39061    
  9.7783399E-04  1.0025901E-03   10.04309       15.24847    
  1.0025901E-03  1.0539900E-03   10.96311       13.01955    
  1.0539900E-03  1.1080300E-03   11.93019       7.907375    
  1.1080300E-03  1.1648400E-03   9.446287       10.89121    
  1.1648400E-03  1.1943300E-03   10.74864       9.698062    
  1.1943300E-03  1.2245600E-03   7.886751       23.29308    
  1.2245600E-03  1.2873500E-03   12.40618       16.48985    
  1.2873500E-03  1.3533500E-03   10.52382       15.01092    
  1.3533500E-03  1.4227401E-03   11.94549       11.57725    
  1.4227401E-03  1.4956900E-03   11.06197       8.138425    
  1.4956900E-03  1.5335500E-03   9.904992       12.55060    
  1.5335500E-03  1.5723699E-03   7.531432       13.78368    
  1.5723699E-03  1.6121800E-03   13.69991       16.54633    
  1.6121800E-03  1.6529900E-03   12.46542       19.05623    
  1.6529900E-03  1.7377400E-03   10.55184       16.15289    
  1.7377400E-03  1.8268300E-03   10.53573       12.01579    
  1.8268300E-03  1.8730800E-03   6.444827       14.72106    
  1.8730800E-03  1.9205000E-03   5.335518       22.19339    
  1.9205000E-03  1.9691200E-03   8.120420       18.59279    
  1.9691200E-03  2.0189700E-03   5.950396       16.19729    
  2.0189700E-03  2.1224800E-03   8.745865       13.59397    
  2.1224800E-03  2.2313001E-03   8.767577       13.82317    
  2.2313001E-03  2.2688799E-03   5.557612       25.72255    
  2.2688799E-03  2.3068599E-03   9.621865       13.07622    
  2.3068599E-03  2.3457000E-03   8.136293       19.46122    
  2.3457000E-03  2.3652499E-03   7.144490       19.83707    
  2.3652499E-03  2.3852000E-03   11.18726       33.33220    
  2.3852000E-03  2.4251300E-03   6.606945       19.03434    
  2.4251300E-03  2.4659701E-03   7.757784       19.33142    
  2.4659701E-03  2.5923999E-03   6.194943       12.93404    
  2.5923999E-03  2.7253199E-03   6.231702       16.43563    
  2.7253199E-03  2.8650500E-03   7.348386       12.45514    
  2.8650500E-03  3.0119400E-03   6.628903       13.05029    
  3.0119400E-03  3.0881900E-03   5.768433       18.70104    
  3.0881900E-03  3.1663701E-03   6.406501       10.76199    
  3.1663701E-03  3.2465300E-03   3.972093       21.11945    
  3.2465300E-03  3.3287101E-03   4.677032       15.02926    
  3.3287101E-03  3.4993801E-03   4.789070       12.44729    
  3.4993801E-03  3.6787901E-03   4.760568       14.16643    
  3.6787901E-03  3.8674099E-03   4.002499       14.72508    
  3.8674099E-03  4.0656999E-03   4.421101       9.048944    
  4.0656999E-03  4.2741499E-03   4.685073       16.89742    
  4.2741499E-03  4.4932901E-03   3.786082       13.26012    
  4.4932901E-03  4.6070400E-03   3.599013       22.74591    
  4.6070400E-03  4.7236700E-03   2.753877       12.13173    
  4.7236700E-03  4.8432499E-03   3.520548       17.76535    
  4.8432499E-03  4.9658502E-03   4.512009       17.90423    
  4.9658502E-03  5.2204598E-03   3.403532       13.21970    
  5.2204598E-03  5.4881200E-03   3.823439       11.08647    
  5.4881200E-03  5.7695000E-03   3.587991       9.640101    
  5.7695000E-03  5.9155500E-03   2.540291       18.47767    
  5.9155500E-03  6.0653100E-03   2.417419       11.41241    
  6.0653100E-03  6.2188501E-03   1.851457       23.21308    
  6.2188501E-03  6.3762800E-03   2.287913       14.03045    
  6.3762800E-03  6.5377001E-03   2.440846       15.12302    
  6.5377001E-03  6.5923799E-03   2.071781       37.89327    
  6.5923799E-03  6.6475999E-03   2.982834       34.27969    
  6.6475999E-03  6.7031998E-03   1.747084       32.34185    
  6.7031998E-03  6.8728901E-03   2.340461       18.07143    
  6.8728901E-03  7.0468802E-03   2.238389       14.76062    
  7.0468802E-03  7.2252699E-03   1.597318       16.44381    
  7.2252699E-03  7.4081798E-03   1.960290       11.82742    
  7.4081798E-03  7.5957198E-03   1.976171       21.37584    
  7.5957198E-03  7.7880099E-03   1.458515       20.51018    
  7.7880099E-03  7.9851598E-03   1.998025       18.51228    
  7.9851598E-03  8.1873098E-03   2.087698       13.72297    
  8.1873098E-03  8.3945701E-03   2.350683       15.19842    
  8.3945701E-03  8.6070802E-03   2.075919       18.36637    
  8.6070802E-03  8.8249696E-03   1.596511       20.33609    
  8.8249696E-03  9.0483697E-03   1.844811       14.07651    
  9.0483697E-03  9.2774397E-03   1.319473       22.49829    
  9.2774397E-03  9.5122904E-03   1.486707       21.83322    
  9.5122904E-03  9.7530996E-03   1.794783       22.35456    
  9.7530996E-03  9.9999998E-03   1.117365       22.95004    
  9.9999998E-03  1.0253200E-02   1.944267       10.34455    
  1.0253200E-02  1.0512700E-02   1.175025       19.09713    
  1.0512700E-02  1.0778800E-02   1.161232       22.26283    
  1.0778800E-02  1.1051700E-02   1.129164       18.42333    
  1.1051700E-02  1.1331500E-02   1.498656       14.34291    
  1.1331500E-02  1.1618300E-02   1.347964       16.51398    
  1.1618300E-02  1.1912500E-02   1.409294       21.58606    
  1.1912500E-02  1.2214000E-02   1.598841       16.00784    
  1.2214000E-02  1.2523200E-02   1.188141       17.95441    
  1.2523200E-02  1.2840200E-02   1.022391       21.12884    
  1.2840200E-02  1.3165300E-02  0.6443840       21.48154    
  1.3165300E-02  1.3498600E-02  0.7402561       33.51799    
  1.3498600E-02  1.3840300E-02   1.013960       21.00395    
  1.3840300E-02  1.4190700E-02   1.202452       14.48069    
  1.4190700E-02  1.4549900E-02  0.9383054       11.61001    
  1.4549900E-02  1.4918300E-02  0.5938640       27.73601    
  1.4918300E-02  1.5295900E-02   1.377346       12.23021    
  1.5295900E-02  1.5683100E-02   1.205231       16.29125    
  1.5683100E-02  1.6080100E-02  0.5814720       16.30456    
  1.6080100E-02  1.6487200E-02  0.8721695       11.46441    
  1.6487200E-02  1.6904600E-02  0.9267285       14.72003    
  1.6904600E-02  1.7332500E-02  0.5628964       23.66167    
  1.7332500E-02  1.7771300E-02  0.7605388       21.31663    
  1.7771300E-02  1.8221200E-02  0.6830002       16.07303    
  1.8221200E-02  1.8682500E-02  0.7077252       18.09706    
  1.8682500E-02  1.9155400E-02  0.5228921       27.53607    
  1.9155400E-02  1.9640300E-02  0.6216001       21.88115    
  1.9640300E-02  2.0000000E-02  0.5371547       23.69421    
