 # Detector n:  1  HeIInflux 
 # N. of energy intervals 260
  1.0000100E-14  2.0000000E-13  3.9775183E+10   18.91938    
  2.0000000E-13  2.9297300E-13  8.0912138E+10   11.86431    
  2.9297300E-13  4.2916701E-13  1.1697827E+11   8.252843    
  4.2916701E-13  6.2867300E-13  1.8612512E+11   4.466614    
  6.2867300E-13  9.2092198E-13  2.6834679E+11   7.418859    
  9.2092198E-13  1.3490300E-12  3.6098025E+11   4.739573    
  1.3490300E-12  1.9761499E-12  4.9100741E+11   3.021256    
  1.9761499E-12  2.8947901E-12  5.9630184E+11   3.264950    
  2.8947901E-12  4.2404799E-12  7.3440094E+11   2.067586    
  4.2404799E-12  6.2117499E-12  8.4488140E+11   1.338805    
  6.2117499E-12  9.0993801E-12  8.8566956E+11   1.201781    
  9.0993801E-12  1.3329400E-11  8.1141242E+11   1.034989    
  1.3329400E-11  1.9525799E-11  6.2762942E+11   1.026409    
  1.9525799E-11  2.8602700E-11  3.9328219E+11  0.8964574    
  2.8602700E-11  4.1899099E-11  1.9542100E+11  0.7705880    
  4.1899099E-11  6.1376598E-11  8.2278851E+10   1.601692    
  6.1376598E-11  8.9908601E-11  3.4866536E+10  0.9630407    
  8.9908601E-11  1.3170399E-10  1.3980322E+10   1.913023    
  1.3170399E-10  1.9292901E-10  6.0257628E+09  0.9225470    
  1.9292901E-10  2.8261499E-10  3.4280448E+09  0.8318885    
  2.8261499E-10  4.1399401E-10  2.1558113E+09   1.267730    
  4.1399401E-10  5.3157900E-10  1.5760598E+09   1.093874    
  5.3157900E-10  6.2506200E-10  1.2332127E+09   2.074019    
  6.2506200E-10  6.8256001E-10  1.1082537E+09   1.325163    
  6.8256001E-10  8.3368101E-10  9.5570400E+08   1.904911    
  8.3368101E-10  8.7642499E-10  8.2601920E+08   3.385727    
  8.7642499E-10  1.1253500E-09  6.9764909E+08   1.439797    
  1.1253500E-09  1.4449800E-09  5.4601670E+08  0.9461868    
  1.4449800E-09  1.8553900E-09  4.2548531E+08   1.380054    
  1.8553900E-09  2.3823701E-09  3.2444957E+08  0.7051858    
  2.3823701E-09  3.0590199E-09  2.5409664E+08  0.9457460    
  3.0590199E-09  3.9278598E-09  1.9695035E+08   1.128901    
  3.9278598E-09  5.0434799E-09  1.5674379E+08   1.114432    
  5.0434799E-09  6.4759500E-09  1.1990134E+08   1.350820    
  6.4759500E-09  8.3152898E-09  9.4086376E+07  0.6579371    
  8.3152898E-09  1.0677000E-08  7.4071968E+07  0.5680484    
  1.0677000E-08  1.3709600E-08  5.6916736E+07   1.275454    
  1.3709600E-08  1.7603501E-08  4.4186724E+07   1.215273    
  1.7603501E-08  2.2603301E-08  3.5122004E+07   1.138632    
  2.2603301E-08  2.9023200E-08  2.6741814E+07  0.8320559    
  2.9023200E-08  3.7266499E-08  2.0895126E+07   1.135249    
  3.7266499E-08  4.7851199E-08  1.6083757E+07   1.131304    
  4.7851199E-08  6.1442101E-08  1.2659307E+07   1.000958    
  6.1442101E-08  7.8893301E-08   9745579.      0.6411845    
  7.8893301E-08  1.0130100E-07   7521130.       1.234405    
  1.0130100E-07  1.3007300E-07   5967192.      0.5852292    
  1.3007300E-07  1.6701701E-07   4518815.       1.032844    
  1.6701701E-07  2.1445400E-07   3560185.       1.443873    
  2.1445400E-07  2.7536399E-07   2783704.      0.9954411    
  2.7536399E-07  3.5357499E-07   2094516.       1.117421    
  3.5357499E-07  4.5399901E-07   1641763.       1.094462    
  4.5399901E-07  5.8294700E-07   1247917.      0.6676706    
  5.8294700E-07  7.4851800E-07   969035.5       1.685705    
  7.4851800E-07  9.6111603E-07   740146.7       1.468296    
  9.6111603E-07  1.2341000E-06   556210.7       1.314855    
  1.2341000E-06  1.3638900E-06   481920.9       1.086452    
  1.3638900E-06  1.5073300E-06   434496.5       1.009753    
  1.5073300E-06  1.5846100E-06   376586.1       1.885939    
  1.5846100E-06  1.6658601E-06   360109.5       3.192962    
  1.6658601E-06  1.8410600E-06   343102.5       2.585697    
  1.8410600E-06  2.0346799E-06   299404.7       1.544008    
  2.0346799E-06  2.2486699E-06   275455.4       2.296146    
  2.2486699E-06  2.4851699E-06   242849.4       1.879628    
  2.4851699E-06  2.6125899E-06   227839.7       2.168118    
  2.6125899E-06  2.7465401E-06   227800.5       4.766686    
  2.7465401E-06  2.8634900E-06   202586.4       2.928015    
  2.8634900E-06  3.0353899E-06   190796.9       3.240442    
  3.0353899E-06  3.3546301E-06   170770.9       2.720595    
  3.3546301E-06  3.7074401E-06   160614.8       1.384126    
  3.7074401E-06  4.0973500E-06   144091.5       1.776744    
  4.0973500E-06  4.3074201E-06   132936.9       3.175690    
  4.3074201E-06  4.5282700E-06   122518.0       1.785984    
  4.5282700E-06  5.0045101E-06   115950.8       1.714518    
  5.0045101E-06  5.5308401E-06   111122.4       2.324820    
  5.5308401E-06  6.2672698E-06   81417.21       1.521631    
  6.2672698E-06  7.1017398E-06   80050.27       1.783299    
  7.1017398E-06  8.0473301E-06   68936.91       2.666693    
  8.0473301E-06  9.1188203E-06   58735.32       1.622168    
  9.1188203E-06  1.0333000E-05   51412.68       1.852859    
  1.0333000E-05  1.1708800E-05   45315.52       1.779373    
  1.1708800E-05  1.3267800E-05   37998.98       2.391447    
  1.3267800E-05  1.5034400E-05   32105.12       1.852491    
  1.5034400E-05  1.7036200E-05   28613.86       1.839923    
  1.7036200E-05  1.9304500E-05   24937.45       1.552317    
  1.9304500E-05  2.1334799E-05   20937.83       2.305620    
  2.1334799E-05  2.1874899E-05   20760.48       3.365613    
  2.1874899E-05  2.3578599E-05   19260.57       2.364707    
  2.3578599E-05  2.4175501E-05   17877.84       4.275048    
  2.4175501E-05  2.4787500E-05   18480.61       2.248616    
  2.4787500E-05  2.6058400E-05   16245.69       2.324037    
  2.6058400E-05  2.8087899E-05   16738.62       2.259085    
  2.8087899E-05  3.1827800E-05   17473.65       1.148992    
  3.1827800E-05  3.4306700E-05   11296.82       1.945735    
  3.4306700E-05  3.5175199E-05   5238.109       9.576963    
  3.5175199E-05  3.6065601E-05   5574.596       5.955086    
  3.6065601E-05  4.0867701E-05   7089.205       2.027500    
  4.0867701E-05  4.6309200E-05   7919.645       1.614103    
  4.6309200E-05  5.2475199E-05   7066.283       1.974209    
  5.2475199E-05  5.6562199E-05   6740.289       2.173702    
  5.6562199E-05  5.9462200E-05   6074.572       3.583450    
  5.9462200E-05  6.2510902E-05   6144.411       3.288990    
  6.2510902E-05  6.7379500E-05   5401.591       3.618026    
  6.7379500E-05  7.6350902E-05   5239.360       1.236235    
  7.6350902E-05  8.6516899E-05   3765.928       2.547470    
  8.6516899E-05  9.8036500E-05   2237.127       3.153339    
  9.8036500E-05  1.1109000E-04   2668.541       1.253452    
  1.1109000E-04  1.1678600E-04   2576.239       2.508433    
  1.1678600E-04  1.2277300E-04   1796.446       3.559552    
  1.2277300E-04  1.2906799E-04   2690.310       2.666899    
  1.2906799E-04  1.3568600E-04   2549.212       2.443744    
  1.3568600E-04  1.4264201E-04   1945.516       2.355409    
  1.4264201E-04  1.4995600E-04   1381.262       2.580987    
  1.4995600E-04  1.5764400E-04   1273.278       4.183152    
  1.5764400E-04  1.6163501E-04   1027.762       5.810269    
  1.6163501E-04  1.6572700E-04   1165.979       4.430553    
  1.6572700E-04  1.6992200E-04   1289.900       5.291033    
  1.6992200E-04  1.7422400E-04   1297.876       4.847350    
  1.7422400E-04  1.8315599E-04   1377.026       3.388689    
  1.8315599E-04  1.9254700E-04   1338.356       4.738469    
  1.9254700E-04  2.0241900E-04   1175.624       5.233192    
  2.0241900E-04  2.1279699E-04   961.5829       4.180762    
  2.1279699E-04  2.2370800E-04   973.9042       2.986508    
  2.2370800E-04  2.3517800E-04   961.2148       3.237185    
  2.3517800E-04  2.4723500E-04   956.6531       3.470528    
  2.4723500E-04  2.5991100E-04   940.3932       3.535108    
  2.5991100E-04  2.7323700E-04   980.2072       2.613283    
  2.7323700E-04  2.8015400E-04   767.2408       2.983180    
  2.8015400E-04  2.8724599E-04   559.8034       7.200881    
  2.8724599E-04  2.9451799E-04   571.7192       8.953648    
  2.9451799E-04  3.0197401E-04   638.3889       7.950514    
  3.0197401E-04  3.0961799E-04   697.4705       5.379269    
  3.0961799E-04  3.1745600E-04   666.4161       6.638192    
  3.1745600E-04  3.3373301E-04   608.1153       3.673127    
  3.3373301E-04  3.5084400E-04   580.5679       3.319371    
  3.5084400E-04  3.6883200E-04   529.4136       2.786515    
  3.6883200E-04  3.8774201E-04   485.4852       5.085901    
  3.8774201E-04  4.0762199E-04   468.1176       3.182251    
  4.0762199E-04  4.2852099E-04   358.9986       4.797298    
  4.2852099E-04  4.5049199E-04   345.1280       5.001898    
  4.5049199E-04  4.7358900E-04   344.7904       3.310534    
  4.7358900E-04  4.9787102E-04   347.0305       5.302279    
  4.9787102E-04  5.1047403E-04   367.8669       6.174146    
  5.1047403E-04  5.2339700E-04   315.3904       5.219634    
  5.2339700E-04  5.3664698E-04   240.4184       4.249304    
  5.3664698E-04  5.5023201E-04   273.0013       7.259932    
  5.5023201E-04  5.7844300E-04   268.0405       5.634104    
  5.7844300E-04  6.0810102E-04   255.7395       4.283384    
  6.0810102E-04  6.3927902E-04   248.6661       4.341107    
  6.3927902E-04  6.7205500E-04   202.8358       6.668526    
  6.7205500E-04  7.0651202E-04   195.2789       4.043917    
  7.0651202E-04  7.4273598E-04   188.9969       2.313009    
  7.4273598E-04  7.8081700E-04   144.0178       5.860072    
  7.8081700E-04  8.2085002E-04   115.2521       5.353884    
  8.2085002E-04  8.6293602E-04   109.6789       7.833411    
  8.6293602E-04  9.0717903E-04   99.31645       3.867220    
  9.0717903E-04  9.5369201E-04   93.66600       4.274824    
  9.5369201E-04  9.6163998E-04   99.67068       15.10545    
  9.6163998E-04  9.7783399E-04   84.62488       4.329570    
  9.7783399E-04  1.0025901E-03   79.46604       7.005227    
  1.0025901E-03  1.0539900E-03   81.06806       7.222644    
  1.0539900E-03  1.1080300E-03   73.56445       6.818897    
  1.1080300E-03  1.1648400E-03   69.36156       3.950445    
  1.1648400E-03  1.1943300E-03   68.89661       8.527940    
  1.1943300E-03  1.2245600E-03   64.15405       6.404091    
  1.2245600E-03  1.2873500E-03   60.25029       4.173545    
  1.2873500E-03  1.3533500E-03   57.91935       3.885317    
  1.3533500E-03  1.4227401E-03   55.27031       2.723723    
  1.4227401E-03  1.4956900E-03   61.28831       5.654544    
  1.4956900E-03  1.5335500E-03   49.09169       9.370479    
  1.5335500E-03  1.5723699E-03   53.48103       9.439804    
  1.5723699E-03  1.6121800E-03   50.20148       6.622046    
  1.6121800E-03  1.6529900E-03   52.75306       8.061569    
  1.6529900E-03  1.7377400E-03   49.04916       3.836863    
  1.7377400E-03  1.8268300E-03   43.33105       4.911047    
  1.8268300E-03  1.8730800E-03   46.41478       8.291973    
  1.8730800E-03  1.9205000E-03   43.29921       6.903491    
  1.9205000E-03  1.9691200E-03   36.22578       11.05668    
  1.9691200E-03  2.0189700E-03   36.62747       8.537707    
  2.0189700E-03  2.1224800E-03   37.34792       4.697621    
  2.1224800E-03  2.2313001E-03   34.04924       7.261842    
  2.2313001E-03  2.2688799E-03   31.24885       8.707092    
  2.2688799E-03  2.3068599E-03   34.29443       14.64236    
  2.3068599E-03  2.3457000E-03   29.65975       10.13253    
  2.3457000E-03  2.3652499E-03   30.02993       22.15371    
  2.3652499E-03  2.3852000E-03   29.34561       10.84959    
  2.3852000E-03  2.4251300E-03   30.35127       10.21495    
  2.4251300E-03  2.4659701E-03   29.64023       12.19802    
  2.4659701E-03  2.5923999E-03   27.81963       5.005847    
  2.5923999E-03  2.7253199E-03   24.52722       10.33646    
  2.7253199E-03  2.8650500E-03   21.51853       6.587393    
  2.8650500E-03  3.0119400E-03   19.91652       6.164918    
  3.0119400E-03  3.0881900E-03   21.25772       6.525240    
  3.0881900E-03  3.1663701E-03   16.83530       12.94002    
  3.1663701E-03  3.2465300E-03   18.07059       10.02270    
  3.2465300E-03  3.3287101E-03   15.92859       6.216290    
  3.3287101E-03  3.4993801E-03   14.64869       9.342006    
  3.4993801E-03  3.6787901E-03   13.12630       5.212770    
  3.6787901E-03  3.8674099E-03   12.88144       5.839075    
  3.8674099E-03  4.0656999E-03   12.20729       4.894337    
  4.0656999E-03  4.2741499E-03   12.85601       6.546998    
  4.2741499E-03  4.4932901E-03   11.96696       8.052545    
  4.4932901E-03  4.6070400E-03   9.315004       11.80322    
  4.6070400E-03  4.7236700E-03   11.48745       10.13122    
  4.7236700E-03  4.8432499E-03   9.153543       9.967260    
  4.8432499E-03  4.9658502E-03   11.36415       14.07783    
  4.9658502E-03  5.2204598E-03   9.604237       7.248847    
  5.2204598E-03  5.4881200E-03   8.071637       11.52406    
  5.4881200E-03  5.7695000E-03   8.384432       7.762894    
  5.7695000E-03  5.9155500E-03   7.139533       11.89144    
  5.9155500E-03  6.0653100E-03   8.167752       8.848774    
  6.0653100E-03  6.2188501E-03   6.162353       11.58408    
  6.2188501E-03  6.3762800E-03   7.508070       8.339622    
  6.3762800E-03  6.5377001E-03   5.989778       12.34379    
  6.5377001E-03  6.5923799E-03   7.372157       17.79854    
  6.5923799E-03  6.6475999E-03   6.625754       23.33672    
  6.6475999E-03  6.7031998E-03   7.504029       19.84708    
  6.7031998E-03  6.8728901E-03   6.626783       9.693024    
  6.8728901E-03  7.0468802E-03   5.298256       4.883355    
  7.0468802E-03  7.2252699E-03   5.821267       7.812017    
  7.2252699E-03  7.4081798E-03   5.253100       11.40893    
  7.4081798E-03  7.5957198E-03   4.745207       8.752926    
  7.5957198E-03  7.7880099E-03   4.639671       4.775052    
  7.7880099E-03  7.9851598E-03   4.850336       8.735504    
  7.9851598E-03  8.1873098E-03   5.334764       9.544100    
  8.1873098E-03  8.3945701E-03   4.464465       13.58621    
  8.3945701E-03  8.6070802E-03   4.526295       9.697001    
  8.6070802E-03  8.8249696E-03   4.684290       8.941036    
  8.8249696E-03  9.0483697E-03   4.506444       14.04976    
  9.0483697E-03  9.2774397E-03   4.337077       6.483459    
  9.2774397E-03  9.5122904E-03   3.975773       14.47816    
  9.5122904E-03  9.7530996E-03   3.659378       13.21342    
  9.7530996E-03  9.9999998E-03   2.836097       12.25943    
  9.9999998E-03  1.0253200E-02   4.077343       10.61745    
  1.0253200E-02  1.0512700E-02   3.152903       19.49520    
  1.0512700E-02  1.0778800E-02   3.425949       12.98873    
  1.0778800E-02  1.1051700E-02   2.972053       14.65472    
  1.1051700E-02  1.1331500E-02   3.439067       13.58589    
  1.1331500E-02  1.1618300E-02   2.207566       18.86090    
  1.1618300E-02  1.1912500E-02   2.972318       12.39082    
  1.1912500E-02  1.2214000E-02   2.340353       15.16224    
  1.2214000E-02  1.2523200E-02   2.615043       18.03898    
  1.2523200E-02  1.2840200E-02   2.778707       9.420691    
  1.2840200E-02  1.3165300E-02   3.035861       20.19463    
  1.3165300E-02  1.3498600E-02   2.358226       19.94827    
  1.3498600E-02  1.3840300E-02   2.610856       6.313173    
  1.3840300E-02  1.4190700E-02   2.536313       14.47674    
  1.4190700E-02  1.4549900E-02   2.326183       13.54213    
  1.4549900E-02  1.4918300E-02   1.484074       13.64898    
  1.4918300E-02  1.5295900E-02   2.098883       13.63857    
  1.5295900E-02  1.5683100E-02   1.977321       10.96268    
  1.5683100E-02  1.6080100E-02   2.097727       12.25960    
  1.6080100E-02  1.6487200E-02   1.818309       13.50721    
  1.6487200E-02  1.6904600E-02   1.746345       10.31364    
  1.6904600E-02  1.7332500E-02   1.902274       17.33631    
  1.7332500E-02  1.7771300E-02   1.889323       8.997534    
  1.7771300E-02  1.8221200E-02   1.178279       16.59187    
  1.8221200E-02  1.8682500E-02   1.227640       13.08392    
  1.8682500E-02  1.9155400E-02   1.473119       18.89191    
  1.9155400E-02  1.9640300E-02   1.039695       22.98625    
  1.9640300E-02  2.0000000E-02   1.302359       17.77051    
