 # Detector n:            1   HeIInflux 
 # N. of energy intervals         260
  1.0000100E-14  2.0000000E-13  3.3468280E+09   39.47065    
  2.0000000E-13  2.9297300E-13  2.9608366E+10   29.39005    
  2.9297300E-13  4.2916701E-13  2.0344746E+10   18.48038    
  4.2916701E-13  6.2867300E-13  3.2025930E+10   19.72037    
  6.2867300E-13  9.2092198E-13  3.7000499E+10   9.230620    
  9.2092198E-13  1.3490300E-12  5.8470486E+10   4.894419    
  1.3490300E-12  1.9761499E-12  7.9726191E+10   7.118402    
  1.9761499E-12  2.8947901E-12  9.8459886E+10   5.505053    
  2.8947901E-12  4.2404799E-12  1.1909607E+11   2.113597    
  4.2404799E-12  6.2117499E-12  1.3519070E+11   2.924435    
  6.2117499E-12  9.0993801E-12  1.4405432E+11   3.658079    
  9.0993801E-12  1.3329400E-11  1.2903521E+11   3.112023    
  1.3329400E-11  1.9525799E-11  9.5463473E+10   2.678487    
  1.9525799E-11  2.8602700E-11  6.1259563E+10   2.555946    
  2.8602700E-11  4.1899099E-11  2.9612458E+10   2.671040    
  4.1899099E-11  6.1376598E-11  1.2380468E+10   1.803051    
  6.1376598E-11  8.9908601E-11  4.2663209E+09   4.219515    
  8.9908601E-11  1.3170399E-10  1.5824593E+09   5.190107    
  1.3170399E-10  1.9292901E-10  4.6285222E+08   5.331514    
  1.9292901E-10  2.8261499E-10  2.2599869E+08   6.831564    
  2.8261499E-10  4.1399401E-10  1.2283427E+08   4.945409    
  4.1399401E-10  5.3157900E-10  8.8067400E+07   3.046349    
  5.3157900E-10  6.2506200E-10  6.1446544E+07   11.49859    
  6.2506200E-10  6.8256001E-10  5.5040204E+07   9.919485    
  6.8256001E-10  8.3368101E-10  4.5713796E+07   5.460897    
  8.3368101E-10  8.7642499E-10  4.0723120E+07   16.07146    
  8.7642499E-10  1.1253500E-09  3.5209312E+07   2.793250    
  1.1253500E-09  1.4449800E-09  2.5659024E+07   5.884000    
  1.4449800E-09  1.8553900E-09  2.0087144E+07   2.703609    
  1.8553900E-09  2.3823701E-09  1.4219710E+07  0.6775234    
  2.3823701E-09  3.0590199E-09  1.1268962E+07   2.140178    
  3.0590199E-09  3.9278598E-09   8233509.       3.591676    
  3.9278598E-09  5.0434799E-09   6460580.       3.188612    
  5.0434799E-09  6.4759500E-09   4689821.       1.318664    
  6.4759500E-09  8.3152898E-09   3445618.       4.413126    
  8.3152898E-09  1.0677000E-08   2822976.       6.319817    
  1.0677000E-08  1.3709600E-08   2020366.       3.266405    
  1.3709600E-08  1.7603501E-08   1642399.       5.099436    
  1.7603501E-08  2.2603301E-08   1154946.       10.03639    
  2.2603301E-08  2.9023200E-08   987507.5       4.301328    
  2.9023200E-08  3.7266499E-08   728960.4       4.837997    
  3.7266499E-08  4.7851199E-08   472030.4       6.576895    
  4.7851199E-08  6.1442101E-08   401270.1       4.086250    
  6.1442101E-08  7.8893301E-08   277012.6       6.315087    
  7.8893301E-08  1.0130100E-07   230593.0       10.86344    
  1.0130100E-07  1.3007300E-07   163985.4       4.502228    
  1.3007300E-07  1.6701701E-07   113663.5       7.736634    
  1.6701701E-07  2.1445400E-07   87101.53       5.037218    
  2.1445400E-07  2.7536399E-07   65439.85       5.299285    
  2.7536399E-07  3.5357499E-07   47775.83       11.11284    
  3.5357499E-07  4.5399901E-07   36971.65       4.416915    
  4.5399901E-07  5.8294700E-07   22501.81       7.203754    
  5.8294700E-07  7.4851800E-07   18202.25       4.742991    
  7.4851800E-07  9.6111603E-07   14485.34       4.834774    
  9.6111603E-07  1.2341000E-06   10345.13       4.322944    
  1.2341000E-06  1.3638900E-06   8581.379       10.27722    
  1.3638900E-06  1.5073300E-06   6731.274       8.824062    
  1.5073300E-06  1.5846100E-06   7786.386       13.70862    
  1.5846100E-06  1.6658601E-06   5991.211       9.378372    
  1.6658601E-06  1.8410600E-06   6077.988       11.74974    
  1.8410600E-06  2.0346799E-06   3473.876       14.02423    
  2.0346799E-06  2.2486699E-06   3557.944       11.38425    
  2.2486699E-06  2.4851699E-06   3711.724       9.818195    
  2.4851699E-06  2.6125899E-06   3952.448       14.78258    
  2.6125899E-06  2.7465401E-06   3592.837       23.04638    
  2.7465401E-06  2.8634900E-06   3268.216       31.13325    
  2.8634900E-06  3.0353899E-06   2852.912       6.024672    
  3.0353899E-06  3.3546301E-06   2789.944       11.60255    
  3.3546301E-06  3.7074401E-06   2230.837       11.75159    
  3.7074401E-06  4.0973500E-06   1856.897       16.02969    
  4.0973500E-06  4.3074201E-06   2087.884       31.87526    
  4.3074201E-06  4.5282700E-06   1683.353       20.60694    
  4.5282700E-06  5.0045101E-06   1532.314       18.06156    
  5.0045101E-06  5.5308401E-06   1381.101       10.46983    
  5.5308401E-06  6.2672698E-06   673.0112       11.10066    
  6.2672698E-06  7.1017398E-06   1032.492       15.80856    
  7.1017398E-06  8.0473301E-06   902.2582       5.340359    
  8.0473301E-06  9.1188203E-06   642.3073       18.47506    
  9.1188203E-06  1.0333000E-05   473.2451       30.55356    
  1.0333000E-05  1.1708800E-05   437.9547       30.64142    
  1.1708800E-05  1.3267800E-05   326.1123       15.15416    
  1.3267800E-05  1.5034400E-05   253.1849       19.34635    
  1.5034400E-05  1.7036200E-05   366.1077       12.74936    
  1.7036200E-05  1.9304500E-05   221.5530       21.01420    
  1.9304500E-05  2.1334799E-05   167.7618       31.81136    
  2.1334799E-05  2.1874899E-05   163.2167       49.15924    
  2.1874899E-05  2.3578599E-05   113.4865       30.33162    
  2.3578599E-05  2.4175501E-05   179.6892       49.82971    
  2.4175501E-05  2.4787500E-05   70.89462       28.29049    
  2.4787500E-05  2.6058400E-05   148.5660       16.49037    
  2.6058400E-05  2.8087899E-05   139.8838       32.68608    
  2.8087899E-05  3.1827800E-05   100.9621       47.75268    
  3.1827800E-05  3.4306700E-05   54.10718       43.52291    
  3.4306700E-05  3.5175199E-05   0.000000       0.000000    
  3.5175199E-05  3.6065601E-05   18.37396       99.00000    
  3.6065601E-05  4.0867701E-05   40.58688       12.35310    
  4.0867701E-05  4.6309200E-05   31.54031       24.18914    
  4.6309200E-05  5.2475199E-05   38.34278       17.44994    
  5.2475199E-05  5.6562199E-05   36.51620       21.50389    
  5.6562199E-05  5.9462200E-05   24.73768       42.98376    
  5.9462200E-05  6.2510902E-05   41.71648       40.46668    
  6.2510902E-05  6.7379500E-05   20.15195       31.41888    
  6.7379500E-05  7.6350902E-05   29.58623       27.78338    
  7.6350902E-05  8.6516899E-05   17.95160       16.73681    
  8.6516899E-05  9.8036500E-05   6.740105       34.65232    
  9.8036500E-05  1.1109000E-04   11.28389       38.31538    
  1.1109000E-04  1.1678600E-04   15.61158       42.94403    
  1.1678600E-04  1.2277300E-04   5.853516       59.03537    
  1.2277300E-04  1.2906799E-04   5.987278       51.80577    
  1.2906799E-04  1.3568600E-04   7.670980       59.05044    
  1.3568600E-04  1.4264201E-04   7.499587       60.85074    
  1.4264201E-04  1.4995600E-04   4.756045       88.56287    
  1.4995600E-04  1.5764400E-04   4.360603       76.57381    
  1.5764400E-04  1.6163501E-04   6.089602       99.00000    
  1.6163501E-04  1.6572700E-04   4.118842       99.00000    
  1.6572700E-04  1.6992200E-04  0.2009624       99.00000    
  1.6992200E-04  1.7422400E-04   8.903854       99.00000    
  1.7422400E-04  1.8315599E-04  1.7457169E-02   99.00000    
  1.8315599E-04  1.9254700E-04   6.253360       93.78983    
  1.9254700E-04  2.0241900E-04   5.538600       56.30189    
  2.0241900E-04  2.1279699E-04  0.6824679       99.00000    
  2.1279699E-04  2.2370800E-04   4.247443       64.16724    
  2.2370800E-04  2.3517800E-04   1.248890       99.00000    
  2.3517800E-04  2.4723500E-04   3.533216       60.07053    
  2.4723500E-04  2.5991100E-04   3.798689       68.60401    
  2.5991100E-04  2.7323700E-04   4.065790       34.02595    
  2.7323700E-04  2.8015400E-04   4.627501       61.41748    
  2.8015400E-04  2.8724599E-04   0.000000       0.000000    
  2.8724599E-04  2.9451799E-04   0.000000       0.000000    
  2.9451799E-04  3.0197401E-04   2.955533       82.77644    
  3.0197401E-04  3.0961799E-04   3.051051       69.60696    
  3.0961799E-04  3.1745600E-04  1.7808859E-03   99.00000    
  3.1745600E-04  3.3373301E-04   1.008971       99.00000    
  3.3373301E-04  3.5084400E-04   2.411022       64.37958    
  3.5084400E-04  3.6883200E-04  0.1299671       99.00000    
  3.6883200E-04  3.8774201E-04  0.4099886       98.72243    
  3.8774201E-04  4.0762199E-04  0.3545259       63.45047    
  4.0762199E-04  4.2852099E-04  0.4721403       99.00000    
  4.2852099E-04  4.5049199E-04  0.5876754       99.00000    
  4.5049199E-04  4.7358900E-04  0.7352753       99.00000    
  4.7358900E-04  4.9787102E-04   1.254924       99.00000    
  4.9787102E-04  5.1047403E-04   0.000000       0.000000    
  5.1047403E-04  5.2339700E-04  1.8235877E-03   99.00000    
  5.2339700E-04  5.3664698E-04   0.000000       0.000000    
  5.3664698E-04  5.5023201E-04   0.000000       0.000000    
  5.5023201E-04  5.7844300E-04   0.000000       0.000000    
  5.7844300E-04  6.0810102E-04   0.000000       0.000000    
  6.0810102E-04  6.3927902E-04   0.000000       0.000000    
  6.3927902E-04  6.7205500E-04  0.4297676       68.96502    
  6.7205500E-04  7.0651202E-04   0.000000       0.000000    
  7.0651202E-04  7.4273598E-04   0.000000       0.000000    
  7.4273598E-04  7.8081700E-04  0.6892108       59.54011    
  7.8081700E-04  8.2085002E-04  0.2495352       65.09879    
  8.2085002E-04  8.6293602E-04  4.8938934E-02   99.00000    
  8.6293602E-04  9.0717903E-04   0.000000       0.000000    
  9.0717903E-04  9.5369201E-04   0.000000       0.000000    
  9.5369201E-04  9.6163998E-04   0.000000       0.000000    
  9.6163998E-04  9.7783399E-04   0.000000       0.000000    
  9.7783399E-04  1.0025901E-03  0.6714383       94.03053    
  1.0025901E-03  1.0539900E-03  0.1125350       99.00000    
  1.0539900E-03  1.1080300E-03  9.7869501E-02   71.04543    
  1.1080300E-03  1.1648400E-03  5.5158764E-02   99.00000    
  1.1648400E-03  1.1943300E-03   0.000000       0.000000    
  1.1943300E-03  1.2245600E-03  0.1983698       99.00000    
  1.2245600E-03  1.2873500E-03  2.7789701E-02   99.00000    
  1.2873500E-03  1.3533500E-03   0.000000       0.000000    
  1.3533500E-03  1.4227401E-03  5.5524934E-02   99.00000    
  1.4227401E-03  1.4956900E-03   0.000000       0.000000    
  1.4956900E-03  1.5335500E-03   0.000000       0.000000    
  1.5335500E-03  1.5723699E-03   0.000000       0.000000    
  1.5723699E-03  1.6121800E-03   0.000000       0.000000    
  1.6121800E-03  1.6529900E-03  5.9463918E-02   99.00000    
  1.6529900E-03  1.7377400E-03   0.000000       0.000000    
  1.7377400E-03  1.8268300E-03   0.000000       0.000000    
  1.8268300E-03  1.8730800E-03   0.000000       0.000000    
  1.8730800E-03  1.9205000E-03   0.000000       0.000000    
  1.9205000E-03  1.9691200E-03   0.000000       0.000000    
  1.9691200E-03  2.0189700E-03   0.000000       0.000000    
  2.0189700E-03  2.1224800E-03   0.000000       0.000000    
  2.1224800E-03  2.2313001E-03   0.000000       0.000000    
  2.2313001E-03  2.2688799E-03   0.000000       0.000000    
  2.2688799E-03  2.3068599E-03   0.000000       0.000000    
  2.3068599E-03  2.3457000E-03   0.000000       0.000000    
  2.3457000E-03  2.3652499E-03   0.000000       0.000000    
  2.3652499E-03  2.3852000E-03   0.000000       0.000000    
  2.3852000E-03  2.4251300E-03  0.1936039       99.00000    
  2.4251300E-03  2.4659701E-03   0.000000       0.000000    
  2.4659701E-03  2.5923999E-03  7.4295357E-02   99.00000    
  2.5923999E-03  2.7253199E-03  0.1092506       99.00000    
  2.7253199E-03  2.8650500E-03   0.000000       0.000000    
  2.8650500E-03  3.0119400E-03   0.000000       0.000000    
  3.0119400E-03  3.0881900E-03  9.8018825E-02   99.00000    
  3.0881900E-03  3.1663701E-03   0.000000       0.000000    
  3.1663701E-03  3.2465300E-03   0.000000       0.000000    
  3.2465300E-03  3.3287101E-03   0.000000       0.000000    
  3.3287101E-03  3.4993801E-03   0.000000       0.000000    
  3.4993801E-03  3.6787901E-03   0.000000       0.000000    
  3.6787901E-03  3.8674099E-03   0.000000       0.000000    
  3.8674099E-03  4.0656999E-03   0.000000       0.000000    
  4.0656999E-03  4.2741499E-03  4.6351561E-03   99.00000    
  4.2741499E-03  4.4932901E-03  5.3867303E-02   99.00000    
  4.4932901E-03  4.6070400E-03  5.1362221E-03   99.00000    
  4.6070400E-03  4.7236700E-03  0.1789749       99.00000    
  4.7236700E-03  4.8432499E-03  4.7903225E-02   99.00000    
  4.8432499E-03  4.9658502E-03   0.000000       0.000000    
  4.9658502E-03  5.2204598E-03   0.000000       0.000000    
  5.2204598E-03  5.4881200E-03  0.1077405       99.00000    
  5.4881200E-03  5.7695000E-03   0.000000       0.000000    
  5.7695000E-03  5.9155500E-03   0.000000       0.000000    
  5.9155500E-03  6.0653100E-03   0.000000       0.000000    
  6.0653100E-03  6.2188501E-03  3.0615772E-03   99.00000    
  6.2188501E-03  6.3762800E-03  5.3464171E-02   61.05956    
  6.3762800E-03  6.5377001E-03   0.000000       0.000000    
  6.5377001E-03  6.5923799E-03   0.000000       0.000000    
  6.5923799E-03  6.6475999E-03   0.000000       0.000000    
  6.6475999E-03  6.7031998E-03   0.000000       0.000000    
  6.7031998E-03  6.8728901E-03   0.000000       0.000000    
  6.8728901E-03  7.0468802E-03  2.7017733E-02   99.00000    
  7.0468802E-03  7.2252699E-03   0.000000       0.000000    
  7.2252699E-03  7.4081798E-03  0.1253439       99.00000    
  7.4081798E-03  7.5957198E-03   0.000000       0.000000    
  7.5957198E-03  7.7880099E-03   0.000000       0.000000    
  7.7880099E-03  7.9851598E-03   0.000000       0.000000    
  7.9851598E-03  8.1873098E-03   0.000000       0.000000    
  8.1873098E-03  8.3945701E-03   0.000000       0.000000    
  8.3945701E-03  8.6070802E-03   0.000000       0.000000    
  8.6070802E-03  8.8249696E-03   0.000000       0.000000    
  8.8249696E-03  9.0483697E-03  0.1139400       99.00000    
  9.0483697E-03  9.2774397E-03   0.000000       0.000000    
  9.2774397E-03  9.5122904E-03   0.000000       0.000000    
  9.5122904E-03  9.7530996E-03   0.000000       0.000000    
  9.7530996E-03  9.9999998E-03   0.000000       0.000000    
  9.9999998E-03  1.0253200E-02   0.000000       0.000000    
  1.0253200E-02  1.0512700E-02  0.1071431       99.00000    
  1.0512700E-02  1.0778800E-02   0.000000       0.000000    
  1.0778800E-02  1.1051700E-02   0.000000       0.000000    
  1.1051700E-02  1.1331500E-02   0.000000       0.000000    
  1.1331500E-02  1.1618300E-02   0.000000       0.000000    
  1.1618300E-02  1.1912500E-02   0.000000       0.000000    
  1.1912500E-02  1.2214000E-02  5.0307021E-02   99.00000    
  1.2214000E-02  1.2523200E-02   0.000000       0.000000    
  1.2523200E-02  1.2840200E-02   0.000000       0.000000    
  1.2840200E-02  1.3165300E-02   0.000000       0.000000    
  1.3165300E-02  1.3498600E-02   0.000000       0.000000    
  1.3498600E-02  1.3840300E-02   0.000000       0.000000    
  1.3840300E-02  1.4190700E-02   0.000000       0.000000    
  1.4190700E-02  1.4549900E-02   0.000000       0.000000    
  1.4549900E-02  1.4918300E-02   0.000000       0.000000    
  1.4918300E-02  1.5295900E-02   0.000000       0.000000    
  1.5295900E-02  1.5683100E-02   0.000000       0.000000    
  1.5683100E-02  1.6080100E-02   0.000000       0.000000    
  1.6080100E-02  1.6487200E-02   0.000000       0.000000    
  1.6487200E-02  1.6904600E-02   0.000000       0.000000    
  1.6904600E-02  1.7332500E-02   0.000000       0.000000    
  1.7332500E-02  1.7771300E-02  3.9220016E-02   99.00000    
  1.7771300E-02  1.8221200E-02  4.2697016E-02   99.00000    
  1.8221200E-02  1.8682500E-02   0.000000       0.000000    
  1.8682500E-02  1.9155400E-02  3.6628511E-02   99.00000    
  1.9155400E-02  1.9640300E-02   0.000000       0.000000    
  1.9640300E-02  2.0000000E-02   0.000000       0.000000    
