 # Detector n:            1   HeIIcoll  
 # N. of energy intervals         260
  1.0000100E-14  2.0000000E-13  2.6178632E+09   73.76321    
  2.0000000E-13  2.9297300E-13  5.4382731E+10   66.43030    
  2.9297300E-13  4.2916701E-13  4.6411801E+10   38.73433    
  4.2916701E-13  6.2867300E-13  5.5479759E+10   30.33523    
  6.2867300E-13  9.2092198E-13  5.4161609E+10   13.49163    
  9.2092198E-13  1.3490300E-12  6.1421994E+10   17.27417    
  1.3490300E-12  1.9761499E-12  1.1109540E+11   15.51538    
  1.9761499E-12  2.8947901E-12  1.4709975E+11   6.302492    
  2.8947901E-12  4.2404799E-12  1.8129019E+11   2.979326    
  4.2404799E-12  6.2117499E-12  2.1529952E+11   8.903162    
  6.2117499E-12  9.0993801E-12  1.9872216E+11   8.205339    
  9.0993801E-12  1.3329400E-11  1.8926359E+11  0.5369412    
  1.3329400E-11  1.9525799E-11  1.4576897E+11   4.404828    
  1.9525799E-11  2.8602700E-11  8.5294768E+10   1.558486    
  2.8602700E-11  4.1899099E-11  4.1129329E+10   3.312301    
  4.1899099E-11  6.1376598E-11  1.9274019E+10   4.067456    
  6.1376598E-11  8.9908601E-11  6.7501107E+09   4.427733    
  8.9908601E-11  1.3170399E-10  2.2653343E+09   6.246688    
  1.3170399E-10  1.9292901E-10  7.7565875E+08   16.45971    
  1.9292901E-10  2.8261499E-10  3.7910880E+08   10.26887    
  2.8261499E-10  4.1399401E-10  2.0543699E+08   8.165491    
  4.1399401E-10  5.3157900E-10  1.4324267E+08   6.871307    
  5.3157900E-10  6.2506200E-10  1.0706913E+08   5.356304    
  6.2506200E-10  6.8256001E-10  9.9528936E+07   14.01043    
  6.8256001E-10  8.3368101E-10  7.6029480E+07   5.336032    
  8.3368101E-10  8.7642499E-10  6.5998888E+07   19.60253    
  8.7642499E-10  1.1253500E-09  6.5107896E+07   3.824494    
  1.1253500E-09  1.4449800E-09  4.3639276E+07   3.510748    
  1.4449800E-09  1.8553900E-09  3.4249376E+07   5.715231    
  1.8553900E-09  2.3823701E-09  2.6495952E+07   4.610636    
  2.3823701E-09  3.0590199E-09  1.8617164E+07   12.90337    
  3.0590199E-09  3.9278598E-09  1.5545447E+07   7.585558    
  3.9278598E-09  5.0434799E-09  1.0727718E+07   10.73541    
  5.0434799E-09  6.4759500E-09   7671470.       4.458598    
  6.4759500E-09  8.3152898E-09   6279494.       7.878789    
  8.3152898E-09  1.0677000E-08   4713050.       8.737387    
  1.0677000E-08  1.3709600E-08   4016900.       7.537285    
  1.3709600E-08  1.7603501E-08   2750971.       5.269449    
  1.7603501E-08  2.2603301E-08   1890516.       4.743055    
  2.2603301E-08  2.9023200E-08   1657800.       14.29313    
  2.9023200E-08  3.7266499E-08   1214694.       3.851448    
  3.7266499E-08  4.7851199E-08   866639.2       7.822101    
  4.7851199E-08  6.1442101E-08   685268.9       7.093219    
  6.1442101E-08  7.8893301E-08   485543.6       12.46994    
  7.8893301E-08  1.0130100E-07   406278.2       6.705998    
  1.0130100E-07  1.3007300E-07   296944.6       5.599425    
  1.3007300E-07  1.6701701E-07   238846.9       3.994621    
  1.6701701E-07  2.1445400E-07   160919.5       11.44646    
  2.1445400E-07  2.7536399E-07   112680.4       6.345156    
  2.7536399E-07  3.5357499E-07   91337.28       12.13998    
  3.5357499E-07  4.5399901E-07   58582.47       9.720197    
  4.5399901E-07  5.8294700E-07   50512.41       9.017739    
  5.8294700E-07  7.4851800E-07   34264.13       12.48888    
  7.4851800E-07  9.6111603E-07   24379.25       15.52584    
  9.6111603E-07  1.2341000E-06   22578.84       9.819304    
  1.2341000E-06  1.3638900E-06   15650.42       26.03391    
  1.3638900E-06  1.5073300E-06   12696.18       16.01281    
  1.5073300E-06  1.5846100E-06   8157.403       21.27616    
  1.5846100E-06  1.6658601E-06   14655.56       24.25356    
  1.6658601E-06  1.8410600E-06   12393.98       6.176947    
  1.8410600E-06  2.0346799E-06   10853.28       22.11083    
  2.0346799E-06  2.2486699E-06   8183.569       7.659419    
  2.2486699E-06  2.4851699E-06   5627.625       13.24532    
  2.4851699E-06  2.6125899E-06   7146.850       26.27423    
  2.6125899E-06  2.7465401E-06   6798.449       14.72965    
  2.7465401E-06  2.8634900E-06   3593.902       19.24501    
  2.8634900E-06  3.0353899E-06   6520.267       14.43376    
  3.0353899E-06  3.3546301E-06   4169.306       30.23454    
  3.3546301E-06  3.7074401E-06   4765.515       21.51657    
  3.7074401E-06  4.0973500E-06   3952.793       15.74592    
  4.0973500E-06  4.3074201E-06   2334.488       48.79500    
  4.3074201E-06  4.5282700E-06   4758.362       20.00000    
  4.5282700E-06  5.0045101E-06   2353.800       10.20621    
  5.0045101E-06  5.5308401E-06   3327.892       7.659416    
  5.5308401E-06  6.2672698E-06   1522.256       45.64355    
  6.2672698E-06  7.1017398E-06   2267.097       11.11111    
  7.1017398E-06  8.0473301E-06   1704.376       24.97636    
  8.0473301E-06  9.1188203E-06   915.5955       18.44278    
  9.1188203E-06  1.0333000E-05   1558.360       19.48115    
  1.0333000E-05  1.1708800E-05   967.8386       17.97711    
  1.1708800E-05  1.3267800E-05   809.1971       26.44974    
  1.3267800E-05  1.5034400E-05   793.4822       16.32993    
  1.5034400E-05  1.7036200E-05   525.2245       12.76569    
  1.7036200E-05  1.9304500E-05   494.4505       22.82177    
  1.9304500E-05  2.1334799E-05   172.6357       20.00000    
  2.1334799E-05  2.1874899E-05   259.5799       57.73503    
  2.1874899E-05  2.3578599E-05   329.1552       45.64355    
  2.3578599E-05  2.4175501E-05   117.4348       99.00000    
  2.4175501E-05  2.4787500E-05   458.1431       57.73503    
  2.4787500E-05  2.6058400E-05   330.9229       57.73503    
  2.6058400E-05  2.8087899E-05   448.9830       14.72965    
  2.8087899E-05  3.1827800E-05   318.5971       35.13034    
  3.1827800E-05  3.4306700E-05   197.9107       27.35506    
  3.4306700E-05  3.5175199E-05   161.3909       99.00000    
  3.5175199E-05  3.6065601E-05   78.70966       99.00000    
  3.6065601E-05  4.0867701E-05   58.37397       40.82483    
  4.0867701E-05  4.6309200E-05   64.37230       50.33223    
  4.6309200E-05  5.2475199E-05   45.42476       40.82483    
  5.2475199E-05  5.6562199E-05   51.37648       63.82847    
  5.6562199E-05  5.9462200E-05   72.38445       63.82847    
  5.9462200E-05  6.2510902E-05   45.88752       99.00000    
  6.2510902E-05  6.7379500E-05   71.79213       50.33223    
  6.7379500E-05  7.6350902E-05   46.70186       63.82847    
  7.6350902E-05  8.6516899E-05   48.00227       27.35506    
  8.6516899E-05  9.8036500E-05   24.14566       40.82483    
  9.8036500E-05  1.1109000E-04   37.15210       27.35506    
  1.1109000E-04  1.1678600E-04   12.11695       99.00000    
  1.1678600E-04  1.2277300E-04   11.50098       99.00000    
  1.2277300E-04  1.2906799E-04   10.91142       99.00000    
  1.2906799E-04  1.3568600E-04   20.70425       57.73503    
  1.3568600E-04  1.4264201E-04   29.46758       63.82847    
  1.4264201E-04  1.4995600E-04   27.94587       33.33333    
  1.4995600E-04  1.5764400E-04   8.826388       99.00000    
  1.5764400E-04  1.6163501E-04   0.000000       0.000000    
  1.6163501E-04  1.6572700E-04   32.94426       57.73503    
  1.6572700E-04  1.6992200E-04   0.000000       0.000000    
  1.6992200E-04  1.7422400E-04   15.57997       99.00000    
  1.7422400E-04  1.8315599E-04   29.88347       40.82483    
  1.8315599E-04  1.9254700E-04   0.000000       0.000000    
  1.9254700E-04  2.0241900E-04   6.675143       99.00000    
  2.0241900E-04  2.1279699E-04   6.291594       99.00000    
  2.1279699E-04  2.2370800E-04   17.76320       63.82847    
  2.2370800E-04  2.3517800E-04   11.14127       57.73503    
  2.3517800E-04  2.4723500E-04   0.000000       0.000000    
  2.4723500E-04  2.5991100E-04   0.000000       0.000000    
  2.5991100E-04  2.7323700E-04   4.594156       99.00000    
  2.7323700E-04  2.8015400E-04   8.730185       99.00000    
  2.8015400E-04  2.8724599E-04   8.435439       99.00000    
  2.8724599E-04  2.9451799E-04   0.000000       0.000000    
  2.9451799E-04  3.0197401E-04   0.000000       0.000000    
  3.0197401E-04  3.0961799E-04   0.000000       0.000000    
  3.0961799E-04  3.1745600E-04   14.58278       57.73503    
  3.1745600E-04  3.3373301E-04   3.437884       99.00000    
  3.3373301E-04  3.5084400E-04   0.000000       0.000000    
  3.5084400E-04  3.6883200E-04   2.919462       99.00000    
  3.6883200E-04  3.8774201E-04   2.667772       99.00000    
  3.8774201E-04  4.0762199E-04   0.000000       0.000000    
  4.0762199E-04  4.2852099E-04   2.198604       99.00000    
  4.2852099E-04  4.5049199E-04   0.000000       0.000000    
  4.5049199E-04  4.7358900E-04   3.538710       99.00000    
  4.7358900E-04  4.9787102E-04   0.000000       0.000000    
  4.9787102E-04  5.1047403E-04   2.861877       99.00000    
  5.1047403E-04  5.2339700E-04   2.671760       99.00000    
  5.2339700E-04  5.3664698E-04   2.495937       99.00000    
  5.3664698E-04  5.5023201E-04   2.333518       99.00000    
  5.5023201E-04  5.7844300E-04   1.043685       99.00000    
  5.7844300E-04  6.0810102E-04  0.8965958       99.00000    
  6.0810102E-04  6.3927902E-04   1.527272       99.00000    
  6.3927902E-04  6.7205500E-04  0.6440176       99.00000    
  6.7205500E-04  7.0651202E-04  0.5390872       99.00000    
  7.0651202E-04  7.4273598E-04  0.8968706       57.73503    
  7.4273598E-04  7.8081700E-04  0.3717575       99.00000    
  7.8081700E-04  8.2085002E-04  0.9238163       63.82847    
  8.2085002E-04  8.6293602E-04   1.280285       50.33223    
  8.6293602E-04  9.0717903E-04  0.6444279       63.82847    
  9.0717903E-04  9.5369201E-04  0.3658003       99.00000    
  9.5369201E-04  9.6163998E-04   0.000000       0.000000    
  9.6163998E-04  9.7783399E-04   0.000000       0.000000    
  9.7783399E-04  1.0025901E-03  0.3080090       99.00000    
  1.0025901E-03  1.0539900E-03  0.2835493       99.00000    
  1.0539900E-03  1.1080300E-03  0.3899866       33.33333    
  1.1080300E-03  1.1648400E-03  0.1225833       99.00000    
  1.1648400E-03  1.1943300E-03   0.000000       0.000000    
  1.1943300E-03  1.2245600E-03   0.000000       0.000000    
  1.2245600E-03  1.2873500E-03  0.4679864       40.82483    
  1.2873500E-03  1.3533500E-03  0.2345918       57.73503    
  1.3533500E-03  1.4227401E-03   0.000000       0.000000    
  1.4227401E-03  1.4956900E-03  0.1209882       99.00000    
  1.4956900E-03  1.5335500E-03   0.000000       0.000000    
  1.5335500E-03  1.5723699E-03  0.2485806       99.00000    
  1.5723699E-03  1.6121800E-03   0.000000       0.000000    
  1.6121800E-03  1.6529900E-03   0.000000       0.000000    
  1.6529900E-03  1.7377400E-03  0.3862410       63.82847    
  1.7377400E-03  1.8268300E-03   0.000000       0.000000    
  1.8268300E-03  1.8730800E-03   0.000000       0.000000    
  1.8730800E-03  1.9205000E-03   0.000000       0.000000    
  1.9205000E-03  1.9691200E-03   0.000000       0.000000    
  1.9691200E-03  2.0189700E-03   0.000000       0.000000    
  2.0189700E-03  2.1224800E-03  0.1348971       99.00000    
  2.1224800E-03  2.2313001E-03   0.000000       0.000000    
  2.2313001E-03  2.2688799E-03  0.4045340       99.00000    
  2.2688799E-03  2.3068599E-03  0.4065740       99.00000    
  2.3068599E-03  2.3457000E-03   0.000000       0.000000    
  2.3457000E-03  2.3652499E-03   0.000000       0.000000    
  2.3652499E-03  2.3852000E-03  0.8006418       99.00000    
  2.3852000E-03  2.4251300E-03   0.000000       0.000000    
  2.4251300E-03  2.4659701E-03   0.000000       0.000000    
  2.4659701E-03  2.5923999E-03  0.1330519       99.00000    
  2.5923999E-03  2.7253199E-03   0.000000       0.000000    
  2.7253199E-03  2.8650500E-03   0.000000       0.000000    
  2.8650500E-03  3.0119400E-03   0.000000       0.000000    
  3.0119400E-03  3.0881900E-03   0.000000       0.000000    
  3.0881900E-03  3.1663701E-03   0.000000       0.000000    
  3.1663701E-03  3.2465300E-03   0.000000       0.000000    
  3.2465300E-03  3.3287101E-03   0.000000       0.000000    
  3.3287101E-03  3.4993801E-03   0.000000       0.000000    
  3.4993801E-03  3.6787901E-03  0.1160463       99.00000    
  3.6787901E-03  3.8674099E-03   0.000000       0.000000    
  3.8674099E-03  4.0656999E-03   0.000000       0.000000    
  4.0656999E-03  4.2741499E-03  0.2140489       57.73503    
  4.2741499E-03  4.4932901E-03   0.000000       0.000000    
  4.4932901E-03  4.6070400E-03  0.2040442       99.00000    
  4.6070400E-03  4.7236700E-03  0.2012991       99.00000    
  4.7236700E-03  4.8432499E-03   0.000000       0.000000    
  4.8432499E-03  4.9658502E-03   0.000000       0.000000    
  4.9658502E-03  5.2204598E-03   0.000000       0.000000    
  5.2204598E-03  5.4881200E-03   0.000000       0.000000    
  5.4881200E-03  5.7695000E-03   0.000000       0.000000    
  5.7695000E-03  5.9155500E-03   0.000000       0.000000    
  5.9155500E-03  6.0653100E-03   0.000000       0.000000    
  6.0653100E-03  6.2188501E-03  0.1758614       99.00000    
  6.2188501E-03  6.3762800E-03   0.000000       0.000000    
  6.3762800E-03  6.5377001E-03   0.000000       0.000000    
  6.5377001E-03  6.5923799E-03   0.000000       0.000000    
  6.5923799E-03  6.6475999E-03   0.000000       0.000000    
  6.6475999E-03  6.7031998E-03   0.000000       0.000000    
  6.7031998E-03  6.8728901E-03  0.1687838       99.00000    
  6.8728901E-03  7.0468802E-03   0.000000       0.000000    
  7.0468802E-03  7.2252699E-03   0.000000       0.000000    
  7.2252699E-03  7.4081798E-03  0.1641629       99.00000    
  7.4081798E-03  7.5957198E-03   0.000000       0.000000    
  7.5957198E-03  7.7880099E-03   0.000000       0.000000    
  7.7880099E-03  7.9851598E-03   0.000000       0.000000    
  7.9851598E-03  8.1873098E-03  0.1588452       99.00000    
  8.1873098E-03  8.3945701E-03   0.000000       0.000000    
  8.3945701E-03  8.6070802E-03   0.000000       0.000000    
  8.6070802E-03  8.8249696E-03   0.000000       0.000000    
  8.8249696E-03  9.0483697E-03  0.1544228       99.00000    
  9.0483697E-03  9.2774397E-03   0.000000       0.000000    
  9.2774397E-03  9.5122904E-03   0.000000       0.000000    
  9.5122904E-03  9.7530996E-03   0.000000       0.000000    
  9.7530996E-03  9.9999998E-03   0.000000       0.000000    
  9.9999998E-03  1.0253200E-02   0.000000       0.000000    
  1.0253200E-02  1.0512700E-02   0.000000       0.000000    
  1.0512700E-02  1.0778800E-02   0.000000       0.000000    
  1.0778800E-02  1.1051700E-02   0.000000       0.000000    
  1.1051700E-02  1.1331500E-02   0.000000       0.000000    
  1.1331500E-02  1.1618300E-02   0.000000       0.000000    
  1.1618300E-02  1.1912500E-02   0.000000       0.000000    
  1.1912500E-02  1.2214000E-02   0.000000       0.000000    
  1.2214000E-02  1.2523200E-02  0.2903849       57.73503    
  1.2523200E-02  1.2840200E-02   0.000000       0.000000    
  1.2840200E-02  1.3165300E-02   0.000000       0.000000    
  1.3165300E-02  1.3498600E-02   0.000000       0.000000    
  1.3498600E-02  1.3840300E-02   0.000000       0.000000    
  1.3840300E-02  1.4190700E-02   0.000000       0.000000    
  1.4190700E-02  1.4549900E-02  0.4293587       63.82847    
  1.4549900E-02  1.4918300E-02   0.000000       0.000000    
  1.4918300E-02  1.5295900E-02   0.000000       0.000000    
  1.5295900E-02  1.5683100E-02   0.000000       0.000000    
  1.5683100E-02  1.6080100E-02  0.1422033       99.00000    
  1.6080100E-02  1.6487200E-02   0.000000       0.000000    
  1.6487200E-02  1.6904600E-02   0.000000       0.000000    
  1.6904600E-02  1.7332500E-02   0.000000       0.000000    
  1.7332500E-02  1.7771300E-02   0.000000       0.000000    
  1.7771300E-02  1.8221200E-02   0.000000       0.000000    
  1.8221200E-02  1.8682500E-02   0.000000       0.000000    
  1.8682500E-02  1.9155400E-02   0.000000       0.000000    
  1.9155400E-02  1.9640300E-02   0.000000       0.000000    
  1.9640300E-02  2.0000000E-02   0.000000       0.000000    
