 # Detector n:  1  HeIInflux 
 # N. of energy intervals 260
  1.0000100E-14  2.0000000E-13  7.9373484E+10   14.92476    
  2.0000000E-13  2.9297300E-13  1.8290717E+11   13.44715    
  2.9297300E-13  4.2916701E-13  2.2819113E+11   10.57700    
  4.2916701E-13  6.2867300E-13  2.9145684E+11   9.332232    
  6.2867300E-13  9.2092198E-13  3.8900842E+11   4.870245    
  9.2092198E-13  1.3490300E-12  5.6725661E+11   5.086210    
  1.3490300E-12  1.9761499E-12  7.3568544E+11   2.708238    
  1.9761499E-12  2.8947901E-12  9.4168436E+11   1.887235    
  2.8947901E-12  4.2404799E-12  1.1894074E+12   2.796463    
  4.2404799E-12  6.2117499E-12  1.2909301E+12   1.248590    
  6.2117499E-12  9.0993801E-12  1.3174044E+12   1.284051    
  9.0993801E-12  1.3329400E-11  1.1682433E+12   1.167884    
  1.3329400E-11  1.9525799E-11  8.7576556E+11   1.048841    
  1.9525799E-11  2.8602700E-11  5.2755933E+11  0.9829600    
  2.8602700E-11  4.1899099E-11  2.3862010E+11   1.253436    
  4.1899099E-11  6.1376598E-11  9.4793695E+10   1.514902    
  6.1376598E-11  8.9908601E-11  4.1241391E+10   1.465731    
  8.9908601E-11  1.3170399E-10  1.9192920E+10   1.209316    
  1.3170399E-10  1.9292901E-10  1.0633582E+10   1.394219    
  1.9292901E-10  2.8261499E-10  6.4562309E+09  0.8279632    
  2.8261499E-10  4.1399401E-10  4.1849669E+09  0.6541076    
  4.1399401E-10  5.3157900E-10  3.0261425E+09  0.8496313    
  5.3157900E-10  6.2506200E-10  2.4298156E+09   1.219365    
  6.2506200E-10  6.8256001E-10  2.1569935E+09   1.231592    
  6.8256001E-10  8.3368101E-10  1.8436508E+09   1.086398    
  8.3368101E-10  8.7642499E-10  1.6336732E+09   2.022476    
  8.7642499E-10  1.1253500E-09  1.3832495E+09   1.162692    
  1.1253500E-09  1.4449800E-09  1.0881153E+09   1.142347    
  1.4449800E-09  1.8553900E-09  8.2974221E+08   1.019294    
  1.8553900E-09  2.3823701E-09  6.3898970E+08  0.6210366    
  2.3823701E-09  3.0590199E-09  4.9605862E+08  0.7274820    
  3.0590199E-09  3.9278598E-09  3.8462851E+08  0.8557308    
  3.9278598E-09  5.0434799E-09  3.0203056E+08  0.9739484    
  5.0434799E-09  6.4759500E-09  2.3204382E+08  0.6919466    
  6.4759500E-09  8.3152898E-09  1.7973958E+08  0.8090297    
  8.3152898E-09  1.0677000E-08  1.4125048E+08   1.055424    
  1.0677000E-08  1.3709600E-08  1.1047373E+08  0.8065977    
  1.3709600E-08  1.7603501E-08  8.5616824E+07  0.7024836    
  1.7603501E-08  2.2603301E-08  6.5738416E+07  0.9577551    
  2.2603301E-08  2.9023200E-08  5.0532624E+07  0.7473368    
  2.9023200E-08  3.7266499E-08  4.0102104E+07  0.9993909    
  3.7266499E-08  4.7851199E-08  3.0778538E+07  0.6531702    
  4.7851199E-08  6.1442101E-08  2.3938598E+07  0.8852177    
  6.1442101E-08  7.8893301E-08  1.8629414E+07  0.9107492    
  7.8893301E-08  1.0130100E-07  1.4476414E+07  0.6959173    
  1.0130100E-07  1.3007300E-07  1.1037250E+07  0.7490700    
  1.3007300E-07  1.6701701E-07   8484419.      0.8116536    
  1.6701701E-07  2.1445400E-07   6657823.      0.8630884    
  2.1445400E-07  2.7536399E-07   5003068.      0.7242215    
  2.7536399E-07  3.5357499E-07   3905350.      0.7402236    
  3.5357499E-07  4.5399901E-07   3079780.      0.8976149    
  4.5399901E-07  5.8294700E-07   2308562.      0.6966857    
  5.8294700E-07  7.4851800E-07   1779820.       1.299568    
  7.4851800E-07  9.6111603E-07   1355094.      0.9342140    
  9.6111603E-07  1.2341000E-06   1047558.      0.8466505    
  1.2341000E-06  1.3638900E-06   885320.4       1.752832    
  1.3638900E-06  1.5073300E-06   784781.6       1.625456    
  1.5073300E-06  1.5846100E-06   737896.1       2.171676    
  1.5846100E-06  1.6658601E-06   677173.6       1.839840    
  1.6658601E-06  1.8410600E-06   631137.4       1.090536    
  1.8410600E-06  2.0346799E-06   559985.8       1.500704    
  2.0346799E-06  2.2486699E-06   507771.8       1.564727    
  2.2486699E-06  2.4851699E-06   454345.8       1.576090    
  2.4851699E-06  2.6125899E-06   420343.0       2.180500    
  2.6125899E-06  2.7465401E-06   404233.0       2.395318    
  2.7465401E-06  2.8634900E-06   382406.8       2.526432    
  2.8634900E-06  3.0353899E-06   348629.2       1.866514    
  3.0353899E-06  3.3546301E-06   323150.7       1.502568    
  3.3546301E-06  3.7074401E-06   293277.4       1.585045    
  3.7074401E-06  4.0973500E-06   263115.1       1.679796    
  4.0973500E-06  4.3074201E-06   230770.1       2.635230    
  4.3074201E-06  4.5282700E-06   230258.4       2.100160    
  4.5282700E-06  5.0045101E-06   211386.3       1.616610    
  5.0045101E-06  5.5308401E-06   207016.9       1.410966    
  5.5308401E-06  6.2672698E-06   149637.8       1.518261    
  6.2672698E-06  7.1017398E-06   140465.3       1.145525    
  7.1017398E-06  8.0473301E-06   126598.8       1.623624    
  8.0473301E-06  9.1188203E-06   109339.4       1.217353    
  9.1188203E-06  1.0333000E-05   94264.09       1.815247    
  1.0333000E-05  1.1708800E-05   83008.66       1.788048    
  1.1708800E-05  1.3267800E-05   73219.38       1.423391    
  1.3267800E-05  1.5034400E-05   60809.72       1.222645    
  1.5034400E-05  1.7036200E-05   53330.79       1.686021    
  1.7036200E-05  1.9304500E-05   45953.38       1.517458    
  1.9304500E-05  2.1334799E-05   40319.85       1.596858    
  2.1334799E-05  2.1874899E-05   35142.55       3.306289    
  2.1874899E-05  2.3578599E-05   34404.31       2.027330    
  2.3578599E-05  2.4175501E-05   34183.08       3.262090    
  2.4175501E-05  2.4787500E-05   31795.71       4.279761    
  2.4787500E-05  2.6058400E-05   29304.74       2.195483    
  2.6058400E-05  2.8087899E-05   29421.40       2.162603    
  2.8087899E-05  3.1827800E-05   30839.77       1.549448    
  3.1827800E-05  3.4306700E-05   20967.64       1.856445    
  3.4306700E-05  3.5175199E-05   11849.66       3.624530    
  3.5175199E-05  3.6065601E-05   10264.70       5.190861    
  3.6065601E-05  4.0867701E-05   13470.04       1.959965    
  4.0867701E-05  4.6309200E-05   14740.14       2.094826    
  4.6309200E-05  5.2475199E-05   13125.55       1.818622    
  5.2475199E-05  5.6562199E-05   12047.34       2.459231    
  5.6562199E-05  5.9462200E-05   11386.84       2.801732    
  5.9462200E-05  6.2510902E-05   10050.55       3.180533    
  6.2510902E-05  6.7379500E-05   9865.412       2.554960    
  6.7379500E-05  7.6350902E-05   9292.456       2.036359    
  7.6350902E-05  8.6516899E-05   6738.510       1.591393    
  8.6516899E-05  9.8036500E-05   4188.169       1.929775    
  9.8036500E-05  1.1109000E-04   4875.728       1.914314    
  1.1109000E-04  1.1678600E-04   4772.883       2.382310    
  1.1678600E-04  1.2277300E-04   3418.219       3.303797    
  1.2277300E-04  1.2906799E-04   4742.116       3.254410    
  1.2906799E-04  1.3568600E-04   4550.063       2.560695    
  1.3568600E-04  1.4264201E-04   3454.592       3.202752    
  1.4264201E-04  1.4995600E-04   2499.786       3.955182    
  1.4995600E-04  1.5764400E-04   2407.963       3.199651    
  1.5764400E-04  1.6163501E-04   1939.826       5.510068    
  1.6163501E-04  1.6572700E-04   2411.169       4.286559    
  1.6572700E-04  1.6992200E-04   2339.270       3.022216    
  1.6992200E-04  1.7422400E-04   2225.118       4.588793    
  1.7422400E-04  1.8315599E-04   2472.270       2.970727    
  1.8315599E-04  1.9254700E-04   2453.080       2.892735    
  1.9254700E-04  2.0241900E-04   2106.892       3.515660    
  2.0241900E-04  2.1279699E-04   1810.628       3.472924    
  2.1279699E-04  2.2370800E-04   1755.983       2.625410    
  2.2370800E-04  2.3517800E-04   1839.318       4.157290    
  2.3517800E-04  2.4723500E-04   1749.437       3.267895    
  2.4723500E-04  2.5991100E-04   1602.381       3.191007    
  2.5991100E-04  2.7323700E-04   1725.904       3.345595    
  2.7323700E-04  2.8015400E-04   1468.120       5.921096    
  2.8015400E-04  2.8724599E-04   1187.223       4.993968    
  2.8724599E-04  2.9451799E-04   1129.599       6.119543    
  2.9451799E-04  3.0197401E-04   1246.588       4.118844    
  3.0197401E-04  3.0961799E-04   1044.220       5.462600    
  3.0961799E-04  3.1745600E-04   1120.556       4.060040    
  3.1745600E-04  3.3373301E-04   1120.680       3.540866    
  3.3373301E-04  3.5084400E-04   1115.619       3.462376    
  3.5084400E-04  3.6883200E-04   900.6094       3.387241    
  3.6883200E-04  3.8774201E-04   889.3434       3.099634    
  3.8774201E-04  4.0762199E-04   864.1870       3.956352    
  4.0762199E-04  4.2852099E-04   701.3135       3.874764    
  4.2852099E-04  4.5049199E-04   614.9888       4.113184    
  4.5049199E-04  4.7358900E-04   618.4847       4.623292    
  4.7358900E-04  4.9787102E-04   586.3346       4.268268    
  4.9787102E-04  5.1047403E-04   602.0919       5.673362    
  5.1047403E-04  5.2339700E-04   507.8881       4.845269    
  5.2339700E-04  5.3664698E-04   419.7917       5.711246    
  5.3664698E-04  5.5023201E-04   412.2136       5.469468    
  5.5023201E-04  5.7844300E-04   406.8477       3.321069    
  5.7844300E-04  6.0810102E-04   400.3460       4.684536    
  6.0810102E-04  6.3927902E-04   364.0135       4.297225    
  6.3927902E-04  6.7205500E-04   319.4904       3.852948    
  6.7205500E-04  7.0651202E-04   287.4626       4.907129    
  7.0651202E-04  7.4273598E-04   250.1463       5.870660    
  7.4273598E-04  7.8081700E-04   215.0139       5.738011    
  7.8081700E-04  8.2085002E-04   168.1031       3.542397    
  8.2085002E-04  8.6293602E-04   161.0156       4.141215    
  8.6293602E-04  9.0717903E-04   146.7422       4.611448    
  9.0717903E-04  9.5369201E-04   138.1908       4.339345    
  9.5369201E-04  9.6163998E-04   120.5805       12.95998    
  9.6163998E-04  9.7783399E-04   121.3529       8.299495    
  9.7783399E-04  1.0025901E-03   116.0519       6.804100    
  1.0025901E-03  1.0539900E-03   97.45638       5.703551    
  1.0539900E-03  1.1080300E-03   97.40327       4.094938    
  1.1080300E-03  1.1648400E-03   83.58427       4.279774    
  1.1648400E-03  1.1943300E-03   73.02467       5.650337    
  1.1943300E-03  1.2245600E-03   82.37546       5.650108    
  1.2245600E-03  1.2873500E-03   77.81288       5.395407    
  1.2873500E-03  1.3533500E-03   77.84104       5.999536    
  1.3533500E-03  1.4227401E-03   72.45690       6.654426    
  1.4227401E-03  1.4956900E-03   70.65795       4.964263    
  1.4956900E-03  1.5335500E-03   67.75791       5.772874    
  1.5335500E-03  1.5723699E-03   63.12537       7.896482    
  1.5723699E-03  1.6121800E-03   61.67658       5.938564    
  1.6121800E-03  1.6529900E-03   60.30453       7.419999    
  1.6529900E-03  1.7377400E-03   61.46296       5.595696    
  1.7377400E-03  1.8268300E-03   58.96873       5.186238    
  1.8268300E-03  1.8730800E-03   53.06924       6.403561    
  1.8730800E-03  1.9205000E-03   47.10990       7.130419    
  1.9205000E-03  1.9691200E-03   47.13168       10.05117    
  1.9691200E-03  2.0189700E-03   53.45138       5.965111    
  2.0189700E-03  2.1224800E-03   49.99751       4.724096    
  2.1224800E-03  2.2313001E-03   41.59287       7.148087    
  2.2313001E-03  2.2688799E-03   37.75486       11.67347    
  2.2688799E-03  2.3068599E-03   36.32417       11.33386    
  2.3068599E-03  2.3457000E-03   36.67358       11.23785    
  2.3457000E-03  2.3652499E-03   38.67334       18.10082    
  2.3652499E-03  2.3852000E-03   42.34203       12.20493    
  2.3852000E-03  2.4251300E-03   36.85806       9.667833    
  2.4251300E-03  2.4659701E-03   40.91912       10.73133    
  2.4659701E-03  2.5923999E-03   27.74188       7.475420    
  2.5923999E-03  2.7253199E-03   25.66382       5.581044    
  2.7253199E-03  2.8650500E-03   26.72480       5.558193    
  2.8650500E-03  3.0119400E-03   23.76830       8.010624    
  3.0119400E-03  3.0881900E-03   21.84673       8.416813    
  3.0881900E-03  3.1663701E-03   20.32224       13.89241    
  3.1663701E-03  3.2465300E-03   21.19458       9.815447    
  3.2465300E-03  3.3287101E-03   14.40654       10.60898    
  3.3287101E-03  3.4993801E-03   19.20030       7.047201    
  3.4993801E-03  3.6787901E-03   14.60991       7.720638    
  3.6787901E-03  3.8674099E-03   16.50666       7.112854    
  3.8674099E-03  4.0656999E-03   14.31995       9.500878    
  4.0656999E-03  4.2741499E-03   12.40221       8.003826    
  4.2741499E-03  4.4932901E-03   13.20421       6.909767    
  4.4932901E-03  4.6070400E-03   14.21792       12.70358    
  4.6070400E-03  4.7236700E-03   12.43786       9.718731    
  4.7236700E-03  4.8432499E-03   12.13748       13.53828    
  4.8432499E-03  4.9658502E-03   12.51912       11.60895    
  4.9658502E-03  5.2204598E-03   10.10567       7.403156    
  5.2204598E-03  5.4881200E-03   10.77388       7.107777    
  5.4881200E-03  5.7695000E-03   11.50692       8.047104    
  5.7695000E-03  5.9155500E-03   11.39545       11.04206    
  5.9155500E-03  6.0653100E-03   8.760261       10.06169    
  6.0653100E-03  6.2188501E-03   8.001846       11.56100    
  6.2188501E-03  6.3762800E-03   8.527455       10.39458    
  6.3762800E-03  6.5377001E-03   7.542488       14.02332    
  6.5377001E-03  6.5923799E-03   7.908362       14.58387    
  6.5923799E-03  6.6475999E-03   6.878553       20.59910    
  6.6475999E-03  6.7031998E-03   9.200062       19.98267    
  6.7031998E-03  6.8728901E-03   7.467540       11.39847    
  6.8728901E-03  7.0468802E-03   7.146083       14.96387    
  7.0468802E-03  7.2252699E-03   7.408533       11.04453    
  7.2252699E-03  7.4081798E-03   8.448674       11.40724    
  7.4081798E-03  7.5957198E-03   5.857399       15.29360    
  7.5957198E-03  7.7880099E-03   5.707196       15.11284    
  7.7880099E-03  7.9851598E-03   5.172733       15.95074    
  7.9851598E-03  8.1873098E-03   5.687503       16.03278    
  8.1873098E-03  8.3945701E-03   5.371964       11.82209    
  8.3945701E-03  8.6070802E-03   6.199099       15.00831    
  8.6070802E-03  8.8249696E-03   4.989691       14.07469    
  8.8249696E-03  9.0483697E-03   3.847812       18.37339    
  9.0483697E-03  9.2774397E-03   4.636117       16.87548    
  9.2774397E-03  9.5122904E-03   3.456569       13.54226    
  9.5122904E-03  9.7530996E-03   5.318029       12.16969    
  9.7530996E-03  9.9999998E-03   5.199647       13.29646    
  9.9999998E-03  1.0253200E-02   2.848340       15.28553    
  1.0253200E-02  1.0512700E-02   4.008143       16.64865    
  1.0512700E-02  1.0778800E-02   2.201133       13.73346    
  1.0778800E-02  1.1051700E-02   3.692979       19.45904    
  1.1051700E-02  1.1331500E-02   3.518579       18.77980    
  1.1331500E-02  1.1618300E-02   3.298526       14.27501    
  1.1618300E-02  1.1912500E-02   3.046251       15.66718    
  1.1912500E-02  1.2214000E-02   2.917122       15.05785    
  1.2214000E-02  1.2523200E-02   4.037902       13.58576    
  1.2523200E-02  1.2840200E-02   2.409881       16.07564    
  1.2840200E-02  1.3165300E-02   2.638471       11.07364    
  1.3165300E-02  1.3498600E-02   3.241711       16.00023    
  1.3498600E-02  1.3840300E-02   3.179955       21.32988    
  1.3840300E-02  1.4190700E-02   2.413154       16.69237    
  1.4190700E-02  1.4549900E-02   2.640811       13.75178    
  1.4549900E-02  1.4918300E-02   1.826283       16.18256    
  1.4918300E-02  1.5295900E-02   2.184351       15.84697    
  1.5295900E-02  1.5683100E-02   2.066830       14.69000    
  1.5683100E-02  1.6080100E-02   2.409489       14.88126    
  1.6080100E-02  1.6487200E-02   2.482945       13.50302    
  1.6487200E-02  1.6904600E-02   1.698705       14.36837    
  1.6904600E-02  1.7332500E-02   1.301444       23.85461    
  1.7332500E-02  1.7771300E-02   2.163598       17.88880    
  1.7771300E-02  1.8221200E-02   1.593167       18.06144    
  1.8221200E-02  1.8682500E-02   1.409230       21.83886    
  1.8682500E-02  1.9155400E-02   1.415382       20.92687    
  1.9155400E-02  1.9640300E-02   1.621498       14.23798    
  1.9640300E-02  2.0000000E-02   1.852409       16.39353    
