 # Detector n:            1   HeIInflux 
 # N. of energy intervals         260
  1.0000100E-14  2.0000000E-13  9.2731228E+10   1.502456    
  2.0000000E-13  2.9297300E-13  2.0416055E+11   1.425720    
  2.9297300E-13  4.2916701E-13  2.9117484E+11   1.014724    
  4.2916701E-13  6.2867300E-13  4.0514952E+11  0.6709727    
  6.2867300E-13  9.2092198E-13  5.5817411E+11  0.5063225    
  9.2092198E-13  1.3490300E-12  7.5358516E+11  0.3872072    
  1.3490300E-12  1.9761499E-12  9.7542262E+11  0.2884909    
  1.9761499E-12  2.8947901E-12  1.2168718E+12  0.2278334    
  2.8947901E-12  4.2404799E-12  1.4463401E+12  0.1837287    
  4.2404799E-12  6.2117499E-12  1.5939880E+12  0.1450241    
  6.2117499E-12  9.0993801E-12  1.6087717E+12  0.1221590    
  9.0993801E-12  1.3329400E-11  1.4482617E+12  0.1211348    
  1.3329400E-11  1.9525799E-11  1.1239455E+12  0.1153633    
  1.9525799E-11  2.8602700E-11  7.2771889E+11  0.1073171    
  2.8602700E-11  4.1899099E-11  3.9198720E+11  0.1177319    
  4.1899099E-11  6.1376598E-11  1.8850901E+11  0.1393958    
  6.1376598E-11  8.9908601E-11  8.2988261E+10  0.1543865    
  8.9908601E-11  1.3170399E-10  3.1243071E+10  0.1912653    
  1.3170399E-10  1.9292901E-10  1.0959045E+10  0.2702911    
  1.9292901E-10  2.8261499E-10  4.7934515E+09  0.3174148    
  2.8261499E-10  4.1399401E-10  2.7399196E+09  0.3828396    
  4.1399401E-10  5.3157900E-10  1.9044772E+09  0.4567459    
  5.3157900E-10  6.2506200E-10  1.5165608E+09  0.5455011    
  6.2506200E-10  6.8256001E-10  1.3189902E+09  0.7432377    
  6.8256001E-10  8.3368101E-10  1.1151100E+09  0.5193940    
  8.3368101E-10  8.7642499E-10  9.7207750E+08   1.020247    
  8.7642499E-10  1.1253500E-09  8.2105562E+08  0.4917318    
  1.1253500E-09  1.4449800E-09  6.2966886E+08  0.4569693    
  1.4449800E-09  1.8553900E-09  4.8093690E+08  0.4853911    
  1.8553900E-09  2.3823701E-09  3.6163693E+08  0.5114220    
  2.3823701E-09  3.0590199E-09  2.8337744E+08  0.4830806    
  3.0590199E-09  3.9278598E-09  2.1333926E+08  0.5245674    
  3.9278598E-09  5.0434799E-09  1.6629994E+08  0.5239978    
  5.0434799E-09  6.4759500E-09  1.2783952E+08  0.4869336    
  6.4759500E-09  8.3152898E-09  9.7597912E+07  0.5004608    
  8.3152898E-09  1.0677000E-08  7.5535528E+07  0.4910535    
  1.0677000E-08  1.3709600E-08  5.8007444E+07  0.5179828    
  1.3709600E-08  1.7603501E-08  4.4474020E+07  0.5153672    
  1.7603501E-08  2.2603301E-08  3.3951040E+07  0.5434164    
  2.2603301E-08  2.9023200E-08  2.6064898E+07  0.5224035    
  2.9023200E-08  3.7266499E-08  2.0024148E+07  0.5012826    
  3.7266499E-08  4.7851199E-08  1.5359077E+07  0.5088108    
  4.7851199E-08  6.1442101E-08  1.1653731E+07  0.5266996    
  6.1442101E-08  7.8893301E-08   8832751.      0.5781981    
  7.8893301E-08  1.0130100E-07   6808879.      0.5604483    
  1.0130100E-07  1.3007300E-07   5188272.      0.5468881    
  1.3007300E-07  1.6701701E-07   3935062.      0.5434478    
  1.6701701E-07  2.1445400E-07   2975310.      0.5630625    
  2.1445400E-07  2.7536399E-07   2252130.      0.5461218    
  2.7536399E-07  3.5357499E-07   1728400.      0.5945734    
  3.5357499E-07  4.5399901E-07   1271797.      0.6169024    
  4.5399901E-07  5.8294700E-07   974731.6      0.6289551    
  5.8294700E-07  7.4851800E-07   741777.2      0.5920364    
  7.4851800E-07  9.6111603E-07   559140.8      0.5985168    
  9.6111603E-07  1.2341000E-06   423995.1      0.6385084    
  1.2341000E-06  1.3638900E-06   339297.2      0.9736201    
  1.3638900E-06  1.5073300E-06   308846.4      0.9965827    
  1.5073300E-06  1.5846100E-06   279716.6       1.438793    
  1.5846100E-06  1.6658601E-06   262311.8       1.381916    
  1.6658601E-06  1.8410600E-06   240744.9       1.006334    
  1.8410600E-06  2.0346799E-06   227180.1      0.9954001    
  2.0346799E-06  2.2486699E-06   179439.1       1.003350    
  2.2486699E-06  2.4851699E-06   174688.1       1.085491    
  2.4851699E-06  2.6125899E-06   155398.0       1.576177    
  2.6125899E-06  2.7465401E-06   137327.9       1.505482    
  2.7465401E-06  2.8634900E-06   135336.5       1.690845    
  2.8634900E-06  3.0353899E-06   129766.6       1.395120    
  3.0353899E-06  3.3546301E-06   121286.5       1.074889    
  3.3546301E-06  3.7074401E-06   107030.9       1.123753    
  3.7074401E-06  4.0973500E-06   93656.86       1.081419    
  4.0973500E-06  4.3074201E-06   88167.95       1.525650    
  4.3074201E-06  4.5282700E-06   79451.99       1.514011    
  4.5282700E-06  5.0045101E-06   74257.37       1.075400    
  5.0045101E-06  5.5308401E-06   75407.29       1.037570    
  5.5308401E-06  6.2672698E-06   47799.79       1.116138    
  6.2672698E-06  7.1017398E-06   50295.86       1.036125    
  7.1017398E-06  8.0473301E-06   42970.47      0.9871582    
  8.0473301E-06  9.1188203E-06   36922.48       1.044513    
  9.1188203E-06  1.0333000E-05   31665.48       1.048468    
  1.0333000E-05  1.1708800E-05   27215.26       1.062367    
  1.1708800E-05  1.3267800E-05   23917.42       1.157000    
  1.3267800E-05  1.5034400E-05   20015.60       1.071376    
  1.5034400E-05  1.7036200E-05   17387.00       1.174364    
  1.7036200E-05  1.9304500E-05   14615.16       1.092231    
  1.9304500E-05  2.1334799E-05   12632.24       1.289647    
  2.1334799E-05  2.1874899E-05   11183.91       2.519853    
  2.1874899E-05  2.3578599E-05   11230.90       1.513616    
  2.3578599E-05  2.4175501E-05   10403.94       2.844074    
  2.4175501E-05  2.4787500E-05   10295.78       2.816346    
  2.4787500E-05  2.6058400E-05   10051.12       1.820231    
  2.6058400E-05  2.8087899E-05   9455.821       1.458334    
  2.8087899E-05  3.1827800E-05   9853.196       1.066369    
  3.1827800E-05  3.4306700E-05   5450.104       1.757973    
  3.4306700E-05  3.5175199E-05   2596.569       4.289242    
  3.5175199E-05  3.6065601E-05   2598.047       4.340703    
  3.6065601E-05  4.0867701E-05   3402.499       1.520082    
  4.0867701E-05  4.6309200E-05   4266.615       1.326512    
  4.6309200E-05  5.2475199E-05   3921.797       1.360681    
  5.2475199E-05  5.6562199E-05   3552.201       1.635068    
  5.6562199E-05  5.9462200E-05   3225.308       2.147564    
  5.9462200E-05  6.2510902E-05   3138.227       2.269303    
  6.2510902E-05  6.7379500E-05   2876.855       1.686179    
  6.7379500E-05  7.6350902E-05   2917.262       1.267042    
  7.6350902E-05  8.6516899E-05   2019.903       1.458559    
  8.6516899E-05  9.8036500E-05   1036.063       1.753420    
  9.8036500E-05  1.1109000E-04   1401.683       1.491392    
  1.1109000E-04  1.1678600E-04   1415.391       2.215981    
  1.1678600E-04  1.2277300E-04   939.5656       2.650868    
  1.2277300E-04  1.2906799E-04   1396.730       2.231923    
  1.2906799E-04  1.3568600E-04   1512.001       2.005365    
  1.3568600E-04  1.4264201E-04   1039.804       2.227616    
  1.4264201E-04  1.4995600E-04   730.8494       2.816755    
  1.4995600E-04  1.5764400E-04   690.3939       2.663434    
  1.5764400E-04  1.6163501E-04   572.2271       4.021716    
  1.6163501E-04  1.6572700E-04   668.7312       3.882859    
  1.6572700E-04  1.6992200E-04   713.4462       3.513166    
  1.6992200E-04  1.7422400E-04   749.4992       3.553586    
  1.7422400E-04  1.8315599E-04   753.8603       2.448948    
  1.8315599E-04  1.9254700E-04   746.7872       2.376778    
  1.9254700E-04  2.0241900E-04   673.7399       2.387026    
  2.0241900E-04  2.1279699E-04   538.8317       2.696690    
  2.1279699E-04  2.2370800E-04   547.7350       2.567508    
  2.2370800E-04  2.3517800E-04   520.5431       2.369938    
  2.3517800E-04  2.4723500E-04   557.7625       2.520541    
  2.4723500E-04  2.5991100E-04   533.9140       2.388617    
  2.5991100E-04  2.7323700E-04   543.0573       2.303973    
  2.7323700E-04  2.8015400E-04   515.2354       3.219011    
  2.8015400E-04  2.8724599E-04   389.0360       3.695152    
  2.8724599E-04  2.9451799E-04   385.3778       3.844540    
  2.9451799E-04  3.0197401E-04   405.7208       3.531039    
  3.0197401E-04  3.0961799E-04   392.6681       3.556427    
  3.0961799E-04  3.1745600E-04   350.6417       3.766880    
  3.1745600E-04  3.3373301E-04   365.7245       2.429662    
  3.3373301E-04  3.5084400E-04   355.3378       2.393102    
  3.5084400E-04  3.6883200E-04   310.3607       2.796623    
  3.6883200E-04  3.8774201E-04   277.4064       2.559183    
  3.8774201E-04  4.0762199E-04   261.7009       2.551558    
  4.0762199E-04  4.2852099E-04   236.7741       2.605398    
  4.2852099E-04  4.5049199E-04   214.8972       2.673189    
  4.5049199E-04  4.7358900E-04   210.0464       2.631373    
  4.7358900E-04  4.9787102E-04   204.7780       2.642901    
  4.9787102E-04  5.1047403E-04   187.2659       3.682283    
  5.1047403E-04  5.2339700E-04   198.3330       3.698191    
  5.2339700E-04  5.3664698E-04   166.9232       3.724457    
  5.3664698E-04  5.5023201E-04   181.4634       3.575180    
  5.5023201E-04  5.7844300E-04   159.7276       2.716976    
  5.7844300E-04  6.0810102E-04   152.0917       2.652745    
  6.0810102E-04  6.3927902E-04   133.4773       2.467372    
  6.3927902E-04  6.7205500E-04   118.2678       2.786147    
  6.7205500E-04  7.0651202E-04   105.7334       2.739722    
  7.0651202E-04  7.4273598E-04   98.02245       2.544126    
  7.4273598E-04  7.8081700E-04   86.83794       2.866228    
  7.8081700E-04  8.2085002E-04   68.12659       2.803712    
  8.2085002E-04  8.6293602E-04   63.77808       2.738073    
  8.6293602E-04  9.0717903E-04   57.11048       2.765861    
  9.0717903E-04  9.5369201E-04   51.86648       2.784956    
  9.5369201E-04  9.6163998E-04   43.61958       7.274127    
  9.6163998E-04  9.7783399E-04   49.18282       4.233894    
  9.7783399E-04  1.0025901E-03   43.34413       3.684956    
  1.0025901E-03  1.0539900E-03   42.11411       2.788912    
  1.0539900E-03  1.1080300E-03   42.74897       2.640158    
  1.1080300E-03  1.1648400E-03   39.23041       2.666973    
  1.1648400E-03  1.1943300E-03   38.88957       3.654809    
  1.1943300E-03  1.2245600E-03   38.05017       3.859797    
  1.2245600E-03  1.2873500E-03   37.04469       2.782583    
  1.2873500E-03  1.3533500E-03   36.96265       2.610279    
  1.3533500E-03  1.4227401E-03   38.11856       2.762184    
  1.4227401E-03  1.4956900E-03   37.95680       2.814897    
  1.4956900E-03  1.5335500E-03   38.31881       3.744353    
  1.5335500E-03  1.5723699E-03   33.60910       3.806761    
  1.5723699E-03  1.6121800E-03   36.94340       3.653662    
  1.6121800E-03  1.6529900E-03   36.03188       3.620688    
  1.6529900E-03  1.7377400E-03   36.49511       2.609165    
  1.7377400E-03  1.8268300E-03   34.01270       2.467410    
  1.8268300E-03  1.8730800E-03   34.21925       3.726063    
  1.8730800E-03  1.9205000E-03   31.98941       3.744755    
  1.9205000E-03  1.9691200E-03   32.46120       3.584315    
  1.9691200E-03  2.0189700E-03   31.36984       3.653976    
  2.0189700E-03  2.1224800E-03   32.14786       2.660312    
  2.1224800E-03  2.2313001E-03   29.89102       2.642728    
  2.2313001E-03  2.2688799E-03   28.65700       4.855356    
  2.2688799E-03  2.3068599E-03   27.39552       5.052880    
  2.3068599E-03  2.3457000E-03   32.20546       4.538340    
  2.3457000E-03  2.3652499E-03   31.42604       6.615393    
  2.3652499E-03  2.3852000E-03   28.16915       6.985826    
  2.3852000E-03  2.4251300E-03   26.40020       4.898417    
  2.4251300E-03  2.4659701E-03   30.05550       4.369676    
  2.4659701E-03  2.5923999E-03   24.91728       3.150093    
  2.5923999E-03  2.7253199E-03   23.31037       3.037995    
  2.7253199E-03  2.8650500E-03   21.53450       2.848358    
  2.8650500E-03  3.0119400E-03   20.80109       3.128079    
  3.0119400E-03  3.0881900E-03   19.89435       4.068731    
  3.0881900E-03  3.1663701E-03   20.42138       4.228474    
  3.1663701E-03  3.2465300E-03   20.36403       4.430675    
  3.2465300E-03  3.3287101E-03   17.20158       4.488710    
  3.3287101E-03  3.4993801E-03   16.75632       2.863690    
  3.4993801E-03  3.6787901E-03   16.70444       3.021228    
  3.6787901E-03  3.8674099E-03   14.87805       3.134050    
  3.8674099E-03  4.0656999E-03   15.12370       3.239354    
  4.0656999E-03  4.2741499E-03   15.10426       3.340836    
  4.2741499E-03  4.4932901E-03   13.20474       3.323406    
  4.4932901E-03  4.6070400E-03   12.56822       4.840713    
  4.6070400E-03  4.7236700E-03   12.91606       4.248747    
  4.7236700E-03  4.8432499E-03   12.52200       4.561722    
  4.8432499E-03  4.9658502E-03   11.75026       4.523357    
  4.9658502E-03  5.2204598E-03   11.33617       3.355174    
  5.2204598E-03  5.4881200E-03   11.60145       3.326066    
  5.4881200E-03  5.7695000E-03   10.77989       3.129885    
  5.7695000E-03  5.9155500E-03   10.03671       4.340054    
  5.9155500E-03  6.0653100E-03   9.257795       4.474977    
  6.0653100E-03  6.2188501E-03   9.389009       4.616059    
  6.2188501E-03  6.3762800E-03   8.506321       4.966334    
  6.3762800E-03  6.5377001E-03   8.602777       4.731264    
  6.5377001E-03  6.5923799E-03   8.121645       8.221062    
  6.5923799E-03  6.6475999E-03   8.574960       7.557683    
  6.6475999E-03  6.7031998E-03   8.531423       7.491821    
  6.7031998E-03  6.8728901E-03   8.355593       4.790484    
  6.8728901E-03  7.0468802E-03   7.897441       4.707816    
  7.0468802E-03  7.2252699E-03   8.018955       4.842289    
  7.2252699E-03  7.4081798E-03   7.387227       4.776062    
  7.4081798E-03  7.5957198E-03   7.611068       4.895207    
  7.5957198E-03  7.7880099E-03   6.845549       4.865920    
  7.7880099E-03  7.9851598E-03   6.745823       4.705908    
  7.9851598E-03  8.1873098E-03   6.510639       4.874348    
  8.1873098E-03  8.3945701E-03   6.767646       4.818081    
  8.3945701E-03  8.6070802E-03   6.432956       5.008081    
  8.6070802E-03  8.8249696E-03   5.459300       4.951213    
  8.8249696E-03  9.0483697E-03   6.490115       4.657801    
  9.0483697E-03  9.2774397E-03   5.344977       5.296128    
  9.2774397E-03  9.5122904E-03   5.749248       5.168778    
  9.5122904E-03  9.7530996E-03   5.671557       4.860082    
  9.7530996E-03  9.9999998E-03   5.156777       4.964471    
  9.9999998E-03  1.0253200E-02   5.567165       5.298822    
  1.0253200E-02  1.0512700E-02   4.186017       5.099835    
  1.0512700E-02  1.0778800E-02   4.888162       4.836152    
  1.0778800E-02  1.1051700E-02   4.793954       4.960171    
  1.1051700E-02  1.1331500E-02   4.426877       5.018044    
  1.1331500E-02  1.1618300E-02   4.647587       5.006562    
  1.1618300E-02  1.1912500E-02   4.503719       5.241735    
  1.1912500E-02  1.2214000E-02   4.069373       5.179533    
  1.2214000E-02  1.2523200E-02   4.052926       5.074616    
  1.2523200E-02  1.2840200E-02   3.994428       5.007561    
  1.2840200E-02  1.3165300E-02   3.745463       5.379086    
  1.3165300E-02  1.3498600E-02   4.235572       4.818240    
  1.3498600E-02  1.3840300E-02   3.618923       5.678437    
  1.3840300E-02  1.4190700E-02   3.798208       5.035167    
  1.4190700E-02  1.4549900E-02   3.271182       5.120165    
  1.4549900E-02  1.4918300E-02   3.720962       5.066082    
  1.4918300E-02  1.5295900E-02   3.465621       5.134983    
  1.5295900E-02  1.5683100E-02   3.609179       4.744677    
  1.5683100E-02  1.6080100E-02   3.400604       4.964321    
  1.6080100E-02  1.6487200E-02   3.004585       5.344355    
  1.6487200E-02  1.6904600E-02   3.171054       5.326703    
  1.6904600E-02  1.7332500E-02   2.830103       5.467019    
  1.7332500E-02  1.7771300E-02   2.672299       5.440240    
  1.7771300E-02  1.8221200E-02   2.763318       5.294994    
  1.8221200E-02  1.8682500E-02   2.618725       5.684751    
  1.8682500E-02  1.9155400E-02   2.814803       5.392695    
  1.9155400E-02  1.9640300E-02   2.223704       5.856002    
  1.9640300E-02  2.0000000E-02   2.445267       6.053465    
