 # Detector n:  1  HeIInflux 
 # N. of energy intervals 260
  1.0000100E-14  2.0000000E-13  4.2202853E+10   19.61190    
  2.0000000E-13  2.9297300E-13  9.2294472E+10   14.04830    
  2.9297300E-13  4.2916701E-13  1.1536098E+11   9.797840    
  4.2916701E-13  6.2867300E-13  1.9164427E+11   6.944477    
  6.2867300E-13  9.2092198E-13  2.1801912E+11   8.850821    
  9.2092198E-13  1.3490300E-12  2.9932438E+11   4.342875    
  1.3490300E-12  1.9761499E-12  4.2814790E+11   3.128164    
  1.9761499E-12  2.8947901E-12  5.4699023E+11   1.486333    
  2.8947901E-12  4.2404799E-12  6.5617763E+11   1.149517    
  4.2404799E-12  6.2117499E-12  7.4709716E+11   1.768322    
  6.2117499E-12  9.0993801E-12  7.7496844E+11   1.003087    
  9.0993801E-12  1.3329400E-11  6.9957576E+11   1.056268    
  1.3329400E-11  1.9525799E-11  5.3426985E+11  0.9192855    
  1.9525799E-11  2.8602700E-11  3.2437692E+11   1.602728    
  2.8602700E-11  4.1899099E-11  1.5225346E+11   1.455713    
  4.1899099E-11  6.1376598E-11  6.2998065E+10   1.218039    
  6.1376598E-11  8.9908601E-11  2.8504134E+10   1.330216    
  8.9908601E-11  1.3170399E-10  1.3931537E+10   1.549663    
  1.3170399E-10  1.9292901E-10  8.0801178E+09   1.310576    
  1.9292901E-10  2.8261499E-10  5.0859044E+09   1.117694    
  2.8261499E-10  4.1399401E-10  3.3070766E+09  0.8443114    
  4.1399401E-10  5.3157900E-10  2.4008538E+09   1.052032    
  5.3157900E-10  6.2506200E-10  1.9617864E+09   1.122564    
  6.2506200E-10  6.8256001E-10  1.7065434E+09   1.746149    
  6.8256001E-10  8.3368101E-10  1.4909475E+09   1.230888    
  8.3368101E-10  8.7642499E-10  1.3051712E+09   1.167606    
  8.7642499E-10  1.1253500E-09  1.1309957E+09  0.7755266    
  1.1253500E-09  1.4449800E-09  8.7488058E+08   1.220388    
  1.4449800E-09  1.8553900E-09  6.7599885E+08  0.9914050    
  1.8553900E-09  2.3823701E-09  5.2226573E+08   1.193180    
  2.3823701E-09  3.0590199E-09  4.1332474E+08  0.8308044    
  3.0590199E-09  3.9278598E-09  3.1654746E+08  0.8714544    
  3.9278598E-09  5.0434799E-09  2.5047224E+08  0.5492958    
  5.0434799E-09  6.4759500E-09  1.9767110E+08  0.7233130    
  6.4759500E-09  8.3152898E-09  1.5437699E+08  0.6729655    
  8.3152898E-09  1.0677000E-08  1.1883553E+08   1.277216    
  1.0677000E-08  1.3709600E-08  9.3078488E+07   1.132223    
  1.3709600E-08  1.7603501E-08  7.3281688E+07  0.9861507    
  1.7603501E-08  2.2603301E-08  5.7139636E+07  0.8417034    
  2.2603301E-08  2.9023200E-08  4.3771060E+07   1.008950    
  2.9023200E-08  3.7266499E-08  3.5068772E+07  0.6706426    
  3.7266499E-08  4.7851199E-08  2.7458644E+07  0.9856726    
  4.7851199E-08  6.1442101E-08  2.0786698E+07  0.5640568    
  6.1442101E-08  7.8893301E-08  1.6170347E+07  0.9325395    
  7.8893301E-08  1.0130100E-07  1.2560124E+07  0.8731056    
  1.0130100E-07  1.3007300E-07   9973010.       1.012265    
  1.3007300E-07  1.6701701E-07   7776318.       1.203972    
  1.6701701E-07  2.1445400E-07   6049284.       1.331327    
  2.1445400E-07  2.7536399E-07   4674106.      0.7926381    
  2.7536399E-07  3.5357499E-07   3671112.      0.6901348    
  3.5357499E-07  4.5399901E-07   2759172.       1.317946    
  4.5399901E-07  5.8294700E-07   2165664.      0.7205753    
  5.8294700E-07  7.4851800E-07   1678892.      0.6723605    
  7.4851800E-07  9.6111603E-07   1299656.      0.8363440    
  9.6111603E-07  1.2341000E-06   992795.0      0.8294389    
  1.2341000E-06  1.3638900E-06   813688.8       1.568439    
  1.3638900E-06  1.5073300E-06   749039.0       1.061193    
  1.5073300E-06  1.5846100E-06   693507.0       1.912883    
  1.5846100E-06  1.6658601E-06   663762.4       2.396749    
  1.6658601E-06  1.8410600E-06   605695.8       1.125648    
  1.8410600E-06  2.0346799E-06   523183.0       1.414907    
  2.0346799E-06  2.2486699E-06   507615.3       1.259302    
  2.2486699E-06  2.4851699E-06   428428.4       1.591683    
  2.4851699E-06  2.6125899E-06   406715.5       1.462997    
  2.6125899E-06  2.7465401E-06   397569.4       1.505804    
  2.7465401E-06  2.8634900E-06   369068.2       2.908384    
  2.8634900E-06  3.0353899E-06   349539.5       1.522852    
  3.0353899E-06  3.3546301E-06   319432.5       1.457663    
  3.3546301E-06  3.7074401E-06   292074.4       1.447851    
  3.7074401E-06  4.0973500E-06   253101.6       1.481526    
  4.0973500E-06  4.3074201E-06   239897.8       2.149973    
  4.3074201E-06  4.5282700E-06   221829.3       2.065932    
  4.5282700E-06  5.0045101E-06   209156.8       1.265194    
  5.0045101E-06  5.5308401E-06   201465.1       1.579500    
  5.5308401E-06  6.2672698E-06   146448.9       1.893880    
  6.2672698E-06  7.1017398E-06   141961.4      0.9207115    
  7.1017398E-06  8.0473301E-06   124643.6       1.189039    
  8.0473301E-06  9.1188203E-06   111196.9       1.203077    
  9.1188203E-06  1.0333000E-05   97651.62       1.645326    
  1.0333000E-05  1.1708800E-05   81570.75       1.296211    
  1.1708800E-05  1.3267800E-05   72024.82       1.309353    
  1.3267800E-05  1.5034400E-05   61642.56       1.225014    
  1.5034400E-05  1.7036200E-05   54248.87       1.425123    
  1.7036200E-05  1.9304500E-05   46815.34       1.264401    
  1.9304500E-05  2.1334799E-05   41942.68       1.569191    
  2.1334799E-05  2.1874899E-05   37778.76       3.599066    
  2.1874899E-05  2.3578599E-05   36229.20       1.999450    
  2.3578599E-05  2.4175501E-05   34592.77       2.722702    
  2.4175501E-05  2.4787500E-05   34059.31       3.622454    
  2.4787500E-05  2.6058400E-05   32332.39       1.513289    
  2.6058400E-05  2.8087899E-05   30622.46       1.369078    
  2.8087899E-05  3.1827800E-05   32653.06      0.9560869    
  3.1827800E-05  3.4306700E-05   22340.31       1.419934    
  3.4306700E-05  3.5175199E-05   12528.00       3.448853    
  3.5175199E-05  3.6065601E-05   11184.60       6.087011    
  3.6065601E-05  4.0867701E-05   13585.08       2.247853    
  4.0867701E-05  4.6309200E-05   15537.92       1.563616    
  4.6309200E-05  5.2475199E-05   13760.89       1.800035    
  5.2475199E-05  5.6562199E-05   13036.94       1.403800    
  5.6562199E-05  5.9462200E-05   12248.90       2.028572    
  5.9462200E-05  6.2510902E-05   10684.46       3.029637    
  6.2510902E-05  6.7379500E-05   10809.40       2.241654    
  6.7379500E-05  7.6350902E-05   10350.34       2.169510    
  7.6350902E-05  8.6516899E-05   7835.721       1.231887    
  8.6516899E-05  9.8036500E-05   4536.059       2.592776    
  9.8036500E-05  1.1109000E-04   5523.742       1.433995    
  1.1109000E-04  1.1678600E-04   5384.115       3.347514    
  1.1678600E-04  1.2277300E-04   3630.256       2.246191    
  1.2277300E-04  1.2906799E-04   5189.625       2.954835    
  1.2906799E-04  1.3568600E-04   5182.435       2.906116    
  1.3568600E-04  1.4264201E-04   3951.253       3.257948    
  1.4264201E-04  1.4995600E-04   3146.587       5.145461    
  1.4995600E-04  1.5764400E-04   2692.561       3.246237    
  1.5764400E-04  1.6163501E-04   2208.476       5.286401    
  1.6163501E-04  1.6572700E-04   2700.279       5.063643    
  1.6572700E-04  1.6992200E-04   2772.176       2.781398    
  1.6992200E-04  1.7422400E-04   2819.463       3.809721    
  1.7422400E-04  1.8315599E-04   2740.588       3.712062    
  1.8315599E-04  1.9254700E-04   2884.510       3.657644    
  1.9254700E-04  2.0241900E-04   2677.093       2.143149    
  2.0241900E-04  2.1279699E-04   1995.534       3.368253    
  2.1279699E-04  2.2370800E-04   1993.053       2.927578    
  2.2370800E-04  2.3517800E-04   1930.523       3.527404    
  2.3517800E-04  2.4723500E-04   1979.406       4.224328    
  2.4723500E-04  2.5991100E-04   1996.715       3.258880    
  2.5991100E-04  2.7323700E-04   1932.025       2.818691    
  2.7323700E-04  2.8015400E-04   1695.470       4.652094    
  2.8015400E-04  2.8724599E-04   1349.499       2.631447    
  2.8724599E-04  2.9451799E-04   1327.236       6.287839    
  2.9451799E-04  3.0197401E-04   1490.899       4.605328    
  3.0197401E-04  3.0961799E-04   1294.679       5.524052    
  3.0961799E-04  3.1745600E-04   1209.635       5.741424    
  3.1745600E-04  3.3373301E-04   1370.245       2.560166    
  3.3373301E-04  3.5084400E-04   1367.344       3.039340    
  3.5084400E-04  3.6883200E-04   1070.635       3.560570    
  3.6883200E-04  3.8774201E-04   1020.305       3.938259    
  3.8774201E-04  4.0762199E-04   963.7728       3.633598    
  4.0762199E-04  4.2852099E-04   771.5508       3.137344    
  4.2852099E-04  4.5049199E-04   782.8857       2.160359    
  4.5049199E-04  4.7358900E-04   738.9076       2.713804    
  4.7358900E-04  4.9787102E-04   729.3523       2.345932    
  4.9787102E-04  5.1047403E-04   677.4379       3.209999    
  5.1047403E-04  5.2339700E-04   701.0533       4.196062    
  5.2339700E-04  5.3664698E-04   554.3837       7.147170    
  5.3664698E-04  5.5023201E-04   612.1608       3.426498    
  5.5023201E-04  5.7844300E-04   499.4879       3.146032    
  5.7844300E-04  6.0810102E-04   489.8741       4.842639    
  6.0810102E-04  6.3927902E-04   456.4263       3.930214    
  6.3927902E-04  6.7205500E-04   368.5435       4.639042    
  6.7205500E-04  7.0651202E-04   396.1649       2.553767    
  7.0651202E-04  7.4273598E-04   323.2054       3.868204    
  7.4273598E-04  7.8081700E-04   290.6961       2.247721    
  7.8081700E-04  8.2085002E-04   241.3631       5.377840    
  8.2085002E-04  8.6293602E-04   218.2241       3.789645    
  8.6293602E-04  9.0717903E-04   200.0132       3.390389    
  9.0717903E-04  9.5369201E-04   169.1250       2.604346    
  9.5369201E-04  9.6163998E-04   137.8068       9.205806    
  9.6163998E-04  9.7783399E-04   153.9246       5.357005    
  9.7783399E-04  1.0025901E-03   132.7619       6.039396    
  1.0025901E-03  1.0539900E-03   140.4573       2.821333    
  1.0539900E-03  1.1080300E-03   134.4160       3.353638    
  1.1080300E-03  1.1648400E-03   114.4458       3.494334    
  1.1648400E-03  1.1943300E-03   109.9704       7.562052    
  1.1943300E-03  1.2245600E-03   124.1080       6.885188    
  1.2245600E-03  1.2873500E-03   101.9732       3.598763    
  1.2873500E-03  1.3533500E-03   115.6861       6.236378    
  1.3533500E-03  1.4227401E-03   103.1834       4.681196    
  1.4227401E-03  1.4956900E-03   98.51969       6.154014    
  1.4956900E-03  1.5335500E-03   97.21684       3.483431    
  1.5335500E-03  1.5723699E-03   95.54797       8.964178    
  1.5723699E-03  1.6121800E-03   87.23986       7.989342    
  1.6121800E-03  1.6529900E-03   96.53226       5.597908    
  1.6529900E-03  1.7377400E-03   81.74242       3.096998    
  1.7377400E-03  1.8268300E-03   75.32737       5.769920    
  1.8268300E-03  1.8730800E-03   91.98335       4.308620    
  1.8730800E-03  1.9205000E-03   70.80646       7.110611    
  1.9205000E-03  1.9691200E-03   74.78604       7.128585    
  1.9691200E-03  2.0189700E-03   69.51090       8.047441    
  2.0189700E-03  2.1224800E-03   63.48862       3.403876    
  2.1224800E-03  2.2313001E-03   55.50281       6.103099    
  2.2313001E-03  2.2688799E-03   61.10674       11.92932    
  2.2688799E-03  2.3068599E-03   47.97340       10.83582    
  2.3068599E-03  2.3457000E-03   51.80391       9.124112    
  2.3457000E-03  2.3652499E-03   59.48977       14.96267    
  2.3652499E-03  2.3852000E-03   47.92529       9.537388    
  2.3852000E-03  2.4251300E-03   45.62374       4.645485    
  2.4251300E-03  2.4659701E-03   41.82548       10.49716    
  2.4659701E-03  2.5923999E-03   37.85952       5.336161    
  2.5923999E-03  2.7253199E-03   39.28461       5.124743    
  2.7253199E-03  2.8650500E-03   34.29811       4.689238    
  2.8650500E-03  3.0119400E-03   31.32612       5.497176    
  3.0119400E-03  3.0881900E-03   30.19338       7.710380    
  3.0881900E-03  3.1663701E-03   27.50177       9.295937    
  3.1663701E-03  3.2465300E-03   25.12298       11.88953    
  3.2465300E-03  3.3287101E-03   23.31500       6.933522    
  3.3287101E-03  3.4993801E-03   23.40922       4.975509    
  3.4993801E-03  3.6787901E-03   22.99546       5.407788    
  3.6787901E-03  3.8674099E-03   21.03510       5.598409    
  3.8674099E-03  4.0656999E-03   19.48912       6.998718    
  4.0656999E-03  4.2741499E-03   17.57867       8.260544    
  4.2741499E-03  4.4932901E-03   16.28679       9.460726    
  4.4932901E-03  4.6070400E-03   15.86643       9.142859    
  4.6070400E-03  4.7236700E-03   15.82271       11.75446    
  4.7236700E-03  4.8432499E-03   17.39653       12.55017    
  4.8432499E-03  4.9658502E-03   12.39313       11.78861    
  4.9658502E-03  5.2204598E-03   12.31657       4.521834    
  5.2204598E-03  5.4881200E-03   12.75837       8.220135    
  5.4881200E-03  5.7695000E-03   11.69828       7.062797    
  5.7695000E-03  5.9155500E-03   10.99615       13.25307    
  5.9155500E-03  6.0653100E-03   10.50412       10.94459    
  6.0653100E-03  6.2188501E-03   9.789248       10.66090    
  6.2188501E-03  6.3762800E-03   10.12281       13.09225    
  6.3762800E-03  6.5377001E-03   9.558995       9.998858    
  6.5377001E-03  6.5923799E-03   11.00540       13.03271    
  6.5923799E-03  6.6475999E-03   10.09189       19.43023    
  6.6475999E-03  6.7031998E-03   9.344156       13.85485    
  6.7031998E-03  6.8728901E-03   10.36308       13.78682    
  6.8728901E-03  7.0468802E-03   7.970858       10.66379    
  7.0468802E-03  7.2252699E-03   8.992908       10.27207    
  7.2252699E-03  7.4081798E-03   9.727771       8.694818    
  7.4081798E-03  7.5957198E-03   6.945259       14.60072    
  7.5957198E-03  7.7880099E-03   4.908239       10.77557    
  7.7880099E-03  7.9851598E-03   7.282908       8.708541    
  7.9851598E-03  8.1873098E-03   6.150692       15.83252    
  8.1873098E-03  8.3945701E-03   5.644822       14.14732    
  8.3945701E-03  8.6070802E-03   7.758856       9.165318    
  8.6070802E-03  8.8249696E-03   5.964609       7.241004    
  8.8249696E-03  9.0483697E-03   6.839483       18.94140    
  9.0483697E-03  9.2774397E-03   4.251454       16.74010    
  9.2774397E-03  9.5122904E-03   6.141222       12.66025    
  9.5122904E-03  9.7530996E-03   4.956464       13.05920    
  9.7530996E-03  9.9999998E-03   4.644934       11.70178    
  9.9999998E-03  1.0253200E-02   4.134595       8.678681    
  1.0253200E-02  1.0512700E-02   4.780250       8.698218    
  1.0512700E-02  1.0778800E-02   3.596303       13.92487    
  1.0778800E-02  1.1051700E-02   4.598898       11.06562    
  1.1051700E-02  1.1331500E-02   4.348484       13.82189    
  1.1331500E-02  1.1618300E-02   4.368070       16.62727    
  1.1618300E-02  1.1912500E-02   3.761648       12.74043    
  1.1912500E-02  1.2214000E-02   4.264092       6.497662    
  1.2214000E-02  1.2523200E-02   4.038952       14.55369    
  1.2523200E-02  1.2840200E-02   3.103358       13.18819    
  1.2840200E-02  1.3165300E-02   3.280859       13.35891    
  1.3165300E-02  1.3498600E-02   3.353455       19.07807    
  1.3498600E-02  1.3840300E-02   3.497769       15.21944    
  1.3840300E-02  1.4190700E-02   3.314737       10.87298    
  1.4190700E-02  1.4549900E-02   3.358294       14.70761    
  1.4549900E-02  1.4918300E-02   2.062910       13.46515    
  1.4918300E-02  1.5295900E-02   3.181936       10.22789    
  1.5295900E-02  1.5683100E-02   2.569072       18.09567    
  1.5683100E-02  1.6080100E-02   2.536403       17.55248    
  1.6080100E-02  1.6487200E-02   2.300542       19.02847    
  1.6487200E-02  1.6904600E-02   2.369134       17.84615    
  1.6904600E-02  1.7332500E-02   1.970235       14.79577    
  1.7332500E-02  1.7771300E-02   1.945333       13.06106    
  1.7771300E-02  1.8221200E-02   2.176692       11.34115    
  1.8221200E-02  1.8682500E-02   2.335303       16.36634    
  1.8682500E-02  1.9155400E-02   2.096370       14.03452    
  1.9155400E-02  1.9640300E-02   2.215714       11.10032    
  1.9640300E-02  2.0000000E-02   2.003635       18.02513    
