 # Detector n:  1  HeIInflux 
 # N. of energy intervals 260
  1.0000100E-14  2.0000000E-13  5.0337386E+10   16.28908    
  2.0000000E-13  2.9297300E-13  1.1471131E+11   16.69180    
  2.9297300E-13  4.2916701E-13  2.3186050E+11   14.97995    
  4.2916701E-13  6.2867300E-13  2.7481199E+11   6.521055    
  6.2867300E-13  9.2092198E-13  3.7338861E+11   5.469126    
  9.2092198E-13  1.3490300E-12  4.6446703E+11   2.987833    
  1.3490300E-12  1.9761499E-12  6.4510571E+11   2.948331    
  1.9761499E-12  2.8947901E-12  7.9655063E+11   2.414404    
  2.8947901E-12  4.2404799E-12  9.3855849E+11   2.035728    
  4.2404799E-12  6.2117499E-12  1.0695788E+12   1.047769    
  6.2117499E-12  9.0993801E-12  1.1039412E+12   1.527464    
  9.0993801E-12  1.3329400E-11  1.0101282E+12   1.275556    
  1.3329400E-11  1.9525799E-11  7.4580191E+11   1.223767    
  1.9525799E-11  2.8602700E-11  4.4262061E+11   1.090172    
  2.8602700E-11  4.1899099E-11  2.0434978E+11   1.169221    
  4.1899099E-11  6.1376598E-11  8.0842351E+10   1.233845    
  6.1376598E-11  8.9908601E-11  3.3943042E+10   1.570412    
  8.9908601E-11  1.3170399E-10  1.5678725E+10   1.515583    
  1.3170399E-10  1.9292901E-10  8.1155569E+09   1.218949    
  1.9292901E-10  2.8261499E-10  4.9182280E+09  0.9585113    
  2.8261499E-10  4.1399401E-10  3.1884815E+09  0.9199623    
  4.1399401E-10  5.3157900E-10  2.3061171E+09   1.002704    
  5.3157900E-10  6.2506200E-10  1.8576300E+09   1.279740    
  6.2506200E-10  6.8256001E-10  1.6190216E+09   1.772623    
  6.8256001E-10  8.3368101E-10  1.4011538E+09   1.104304    
  8.3368101E-10  8.7642499E-10  1.2240443E+09   1.731409    
  8.7642499E-10  1.1253500E-09  1.0490079E+09   1.014544    
  1.1253500E-09  1.4449800E-09  8.1520870E+08   1.234072    
  1.4449800E-09  1.8553900E-09  6.1894925E+08   1.079102    
  1.8553900E-09  2.3823701E-09  4.7258694E+08  0.7842788    
  2.3823701E-09  3.0590199E-09  3.7334288E+08  0.9865936    
  3.0590199E-09  3.9278598E-09  2.8550422E+08  0.8816788    
  3.9278598E-09  5.0434799E-09  2.2431637E+08  0.9270736    
  5.0434799E-09  6.4759500E-09  1.7486966E+08  0.8031352    
  6.4759500E-09  8.3152898E-09  1.3348462E+08  0.9053147    
  8.3152898E-09  1.0677000E-08  1.0348846E+08   1.069002    
  1.0677000E-08  1.3709600E-08  8.2253552E+07   1.022834    
  1.3709600E-08  1.7603501E-08  6.4488040E+07   1.342110    
  1.7603501E-08  2.2603301E-08  4.8276680E+07  0.7283502    
  2.2603301E-08  2.9023200E-08  3.8411612E+07   1.071876    
  2.9023200E-08  3.7266499E-08  2.9581688E+07  0.8592384    
  3.7266499E-08  4.7851199E-08  2.2389796E+07  0.8973469    
  4.7851199E-08  6.1442101E-08  1.7295532E+07  0.8046394    
  6.1442101E-08  7.8893301E-08  1.3645644E+07  0.7957133    
  7.8893301E-08  1.0130100E-07  1.0427791E+07  0.8569368    
  1.0130100E-07  1.3007300E-07   7953180.      0.7595088    
  1.3007300E-07  1.6701701E-07   6150492.      0.9522352    
  1.6701701E-07  2.1445400E-07   4768769.       1.148113    
  2.1445400E-07  2.7536399E-07   3717692.      0.9783194    
  2.7536399E-07  3.5357499E-07   2815602.       1.169204    
  3.5357499E-07  4.5399901E-07   2162680.      0.8844291    
  4.5399901E-07  5.8294700E-07   1658528.      0.7625597    
  5.8294700E-07  7.4851800E-07   1240029.       1.140870    
  7.4851800E-07  9.6111603E-07   979359.8       1.022422    
  9.6111603E-07  1.2341000E-06   735839.7       1.319336    
  1.2341000E-06  1.3638900E-06   600097.4       1.541040    
  1.3638900E-06  1.5073300E-06   537556.0       1.449928    
  1.5073300E-06  1.5846100E-06   502585.6       2.480870    
  1.5846100E-06  1.6658601E-06   466007.6       1.643101    
  1.6658601E-06  1.8410600E-06   438240.0       1.666549    
  1.8410600E-06  2.0346799E-06   393818.1       1.596812    
  2.0346799E-06  2.2486699E-06   348796.9       1.970843    
  2.2486699E-06  2.4851699E-06   307662.2       2.276011    
  2.4851699E-06  2.6125899E-06   282664.0       2.400604    
  2.6125899E-06  2.7465401E-06   271517.7       1.697982    
  2.7465401E-06  2.8634900E-06   270001.0       2.350151    
  2.8634900E-06  3.0353899E-06   253643.5       2.226469    
  3.0353899E-06  3.3546301E-06   229222.6       2.153178    
  3.3546301E-06  3.7074401E-06   196869.1       1.942746    
  3.7074401E-06  4.0973500E-06   184642.6       1.867367    
  4.0973500E-06  4.3074201E-06   165137.8       2.284730    
  4.3074201E-06  4.5282700E-06   157614.5       2.695018    
  4.5282700E-06  5.0045101E-06   148118.0       1.344905    
  5.0045101E-06  5.5308401E-06   139396.3       2.220745    
  5.5308401E-06  6.2672698E-06   97541.42       1.672228    
  6.2672698E-06  7.1017398E-06   98460.87       1.383422    
  7.1017398E-06  8.0473301E-06   86850.04       1.836724    
  8.0473301E-06  9.1188203E-06   71798.56       1.782942    
  9.1188203E-06  1.0333000E-05   64401.55       1.764723    
  1.0333000E-05  1.1708800E-05   55091.77       2.290314    
  1.1708800E-05  1.3267800E-05   48147.58       1.398083    
  1.3267800E-05  1.5034400E-05   41520.36       1.788109    
  1.5034400E-05  1.7036200E-05   36166.61       1.703810    
  1.7036200E-05  1.9304500E-05   29997.62       1.803594    
  1.9304500E-05  2.1334799E-05   26147.99       2.201704    
  2.1334799E-05  2.1874899E-05   24698.55       3.412031    
  2.1874899E-05  2.3578599E-05   23802.40       1.867709    
  2.3578599E-05  2.4175501E-05   22040.56       3.554447    
  2.4175501E-05  2.4787500E-05   20147.98       5.160644    
  2.4787500E-05  2.6058400E-05   20577.92       3.623752    
  2.6058400E-05  2.8087899E-05   19885.26       2.126178    
  2.8087899E-05  3.1827800E-05   20026.28       1.724082    
  3.1827800E-05  3.4306700E-05   13586.17       2.069409    
  3.4306700E-05  3.5175199E-05   7088.657       5.283858    
  3.5175199E-05  3.6065601E-05   6590.714       5.197641    
  3.6065601E-05  4.0867701E-05   8507.835       2.329529    
  4.0867701E-05  4.6309200E-05   9363.856       2.019099    
  4.6309200E-05  5.2475199E-05   8298.115       2.480151    
  5.2475199E-05  5.6562199E-05   7733.517       2.458803    
  5.6562199E-05  5.9462200E-05   7088.979       3.635599    
  5.9462200E-05  6.2510902E-05   6862.781       3.790835    
  6.2510902E-05  6.7379500E-05   6443.832       2.919952    
  6.7379500E-05  7.6350902E-05   5887.495       2.073240    
  7.6350902E-05  8.6516899E-05   4414.156       2.396179    
  8.6516899E-05  9.8036500E-05   2621.664       2.734526    
  9.8036500E-05  1.1109000E-04   2993.810       2.727592    
  1.1109000E-04  1.1678600E-04   3051.824       3.120576    
  1.1678600E-04  1.2277300E-04   2049.457       4.422375    
  1.2277300E-04  1.2906799E-04   2754.568       3.855837    
  1.2906799E-04  1.3568600E-04   2808.756       3.578772    
  1.3568600E-04  1.4264201E-04   2192.964       4.275713    
  1.4264201E-04  1.4995600E-04   1751.683       3.449872    
  1.4995600E-04  1.5764400E-04   1421.900       3.945537    
  1.5764400E-04  1.6163501E-04   1279.642       5.246991    
  1.6163501E-04  1.6572700E-04   1478.214       6.393224    
  1.6572700E-04  1.6992200E-04   1618.160       5.617344    
  1.6992200E-04  1.7422400E-04   1454.823       7.134138    
  1.7422400E-04  1.8315599E-04   1552.499       4.726085    
  1.8315599E-04  1.9254700E-04   1488.769       4.450336    
  1.9254700E-04  2.0241900E-04   1456.058       4.110551    
  2.0241900E-04  2.1279699E-04   1157.943       4.132191    
  2.1279699E-04  2.2370800E-04   1087.104       5.698143    
  2.2370800E-04  2.3517800E-04   1046.765       3.776450    
  2.3517800E-04  2.4723500E-04   1022.768       4.733135    
  2.4723500E-04  2.5991100E-04   1112.683       4.950315    
  2.5991100E-04  2.7323700E-04   981.2061       4.679334    
  2.7323700E-04  2.8015400E-04   868.9807       6.398574    
  2.8015400E-04  2.8724599E-04   738.9407       6.115172    
  2.8724599E-04  2.9451799E-04   772.6393       4.469154    
  2.9451799E-04  3.0197401E-04   787.1276       5.918315    
  3.0197401E-04  3.0961799E-04   665.2778       5.677065    
  3.0961799E-04  3.1745600E-04   704.1297       7.564392    
  3.1745600E-04  3.3373301E-04   704.9415       4.262697    
  3.3373301E-04  3.5084400E-04   685.9547       5.261223    
  3.5084400E-04  3.6883200E-04   535.1417       5.500022    
  3.6883200E-04  3.8774201E-04   545.1946       4.401084    
  3.8774201E-04  4.0762199E-04   459.3681       4.971652    
  4.0762199E-04  4.2852099E-04   485.5383       4.065011    
  4.2852099E-04  4.5049199E-04   386.5232       5.132761    
  4.5049199E-04  4.7358900E-04   380.1627       5.530893    
  4.7358900E-04  4.9787102E-04   371.5467       3.879429    
  4.9787102E-04  5.1047403E-04   351.3451       6.271920    
  5.1047403E-04  5.2339700E-04   387.2536       7.237303    
  5.2339700E-04  5.3664698E-04   249.1415       8.624082    
  5.3664698E-04  5.5023201E-04   300.7809       6.246321    
  5.5023201E-04  5.7844300E-04   263.5097       5.134383    
  5.7844300E-04  6.0810102E-04   239.9569       7.306234    
  6.0810102E-04  6.3927902E-04   225.7292       5.777672    
  6.3927902E-04  6.7205500E-04   181.2343       4.468223    
  6.7205500E-04  7.0651202E-04   171.2291       5.595428    
  7.0651202E-04  7.4273598E-04   162.9505       5.252352    
  7.4273598E-04  7.8081700E-04   130.1026       5.217956    
  7.8081700E-04  8.2085002E-04   110.8505       5.153169    
  8.2085002E-04  8.6293602E-04   94.24995       5.880834    
  8.6293602E-04  9.0717903E-04   93.91425       7.168317    
  9.0717903E-04  9.5369201E-04   78.49019       6.043776    
  9.5369201E-04  9.6163998E-04   80.59579       13.88517    
  9.6163998E-04  9.7783399E-04   72.72488       10.21826    
  9.7783399E-04  1.0025901E-03   65.59060       9.156813    
  1.0025901E-03  1.0539900E-03   68.97540       4.314640    
  1.0539900E-03  1.1080300E-03   56.38638       5.712639    
  1.1080300E-03  1.1648400E-03   50.27409       5.727816    
  1.1648400E-03  1.1943300E-03   53.27972       7.585785    
  1.1943300E-03  1.2245600E-03   49.30598       8.295619    
  1.2245600E-03  1.2873500E-03   50.90562       6.018661    
  1.2873500E-03  1.3533500E-03   45.75950       5.637920    
  1.3533500E-03  1.4227401E-03   47.59501       5.642365    
  1.4227401E-03  1.4956900E-03   39.17388       8.076248    
  1.4956900E-03  1.5335500E-03   44.72572       9.087684    
  1.5335500E-03  1.5723699E-03   37.91570       9.198001    
  1.5723699E-03  1.6121800E-03   34.52552       9.016551    
  1.6121800E-03  1.6529900E-03   41.33471       8.587544    
  1.6529900E-03  1.7377400E-03   36.37823       8.223144    
  1.7377400E-03  1.8268300E-03   29.16356       6.427229    
  1.8268300E-03  1.8730800E-03   31.31057       8.458411    
  1.8730800E-03  1.9205000E-03   35.77546       10.88740    
  1.9205000E-03  1.9691200E-03   28.69275       10.37528    
  1.9691200E-03  2.0189700E-03   29.60962       11.27218    
  2.0189700E-03  2.1224800E-03   25.19297       7.821517    
  2.1224800E-03  2.2313001E-03   26.54714       8.798425    
  2.2313001E-03  2.2688799E-03   19.82271       11.75748    
  2.2688799E-03  2.3068599E-03   24.16593       10.28446    
  2.3068599E-03  2.3457000E-03   24.00693       15.48696    
  2.3457000E-03  2.3652499E-03   21.57131       19.99814    
  2.3652499E-03  2.3852000E-03   21.04716       22.81524    
  2.3852000E-03  2.4251300E-03   25.73693       12.64350    
  2.4251300E-03  2.4659701E-03   23.67879       18.73665    
  2.4659701E-03  2.5923999E-03   19.48567       8.664303    
  2.5923999E-03  2.7253199E-03   15.00564       9.652012    
  2.7253199E-03  2.8650500E-03   13.74706       9.409149    
  2.8650500E-03  3.0119400E-03   14.20707       9.839836    
  3.0119400E-03  3.0881900E-03   15.17551       14.40819    
  3.0881900E-03  3.1663701E-03   10.84568       13.35882    
  3.1663701E-03  3.2465300E-03   11.39109       11.86839    
  3.2465300E-03  3.3287101E-03   10.80648       18.83347    
  3.3287101E-03  3.4993801E-03   11.50418       10.49805    
  3.4993801E-03  3.6787901E-03   8.882075       10.45589    
  3.6787901E-03  3.8674099E-03   9.711126       9.697991    
  3.8674099E-03  4.0656999E-03   9.927352       7.664256    
  4.0656999E-03  4.2741499E-03   10.13380       7.834149    
  4.2741499E-03  4.4932901E-03   7.047799       12.05273    
  4.4932901E-03  4.6070400E-03   7.342737       17.58925    
  4.6070400E-03  4.7236700E-03   8.578384       12.42054    
  4.7236700E-03  4.8432499E-03   8.021534       15.01737    
  4.8432499E-03  4.9658502E-03   8.202911       11.83769    
  4.9658502E-03  5.2204598E-03   6.672025       9.711469    
  5.2204598E-03  5.4881200E-03   7.439292       10.56149    
  5.4881200E-03  5.7695000E-03   6.259840       10.89328    
  5.7695000E-03  5.9155500E-03   5.846392       12.06561    
  5.9155500E-03  6.0653100E-03   6.302386       17.01686    
  6.0653100E-03  6.2188501E-03   5.910647       14.71239    
  6.2188501E-03  6.3762800E-03   4.472687       14.37156    
  6.3762800E-03  6.5377001E-03   5.972490       14.33537    
  6.5377001E-03  6.5923799E-03   6.389577       29.60665    
  6.5923799E-03  6.6475999E-03   4.024221       25.29273    
  6.6475999E-03  6.7031998E-03   9.794038       32.65125    
  6.7031998E-03  6.8728901E-03   6.346426       11.21167    
  6.8728901E-03  7.0468802E-03   4.461976       14.68456    
  7.0468802E-03  7.2252699E-03   4.102633       23.10142    
  7.2252699E-03  7.4081798E-03   4.216403       17.47427    
  7.4081798E-03  7.5957198E-03   4.056862       16.41871    
  7.5957198E-03  7.7880099E-03   4.186455       16.65158    
  7.7880099E-03  7.9851598E-03   3.080103       17.77635    
  7.9851598E-03  8.1873098E-03   2.632240       19.64979    
  8.1873098E-03  8.3945701E-03   3.184282       18.60078    
  8.3945701E-03  8.6070802E-03   3.328385       19.41356    
  8.6070802E-03  8.8249696E-03   2.936137       19.59146    
  8.8249696E-03  9.0483697E-03   3.997152       18.53687    
  9.0483697E-03  9.2774397E-03   2.428400       17.84997    
  9.2774397E-03  9.5122904E-03   3.748970       13.46498    
  9.5122904E-03  9.7530996E-03   2.985626       12.64576    
  9.7530996E-03  9.9999998E-03   2.880402       11.27939    
  9.9999998E-03  1.0253200E-02   3.070500       15.59244    
  1.0253200E-02  1.0512700E-02   2.162284       21.13568    
  1.0512700E-02  1.0778800E-02   3.201148       13.68879    
  1.0778800E-02  1.1051700E-02   1.425313       24.17078    
  1.1051700E-02  1.1331500E-02   2.066758       18.44745    
  1.1331500E-02  1.1618300E-02   1.931557       20.29701    
  1.1618300E-02  1.1912500E-02   2.292806       16.20525    
  1.1912500E-02  1.2214000E-02   1.575138       22.70852    
  1.2214000E-02  1.2523200E-02   2.140634       16.04046    
  1.2523200E-02  1.2840200E-02   2.119488       19.64951    
  1.2840200E-02  1.3165300E-02   1.814231       15.97473    
  1.3165300E-02  1.3498600E-02   1.646814       18.16796    
  1.3498600E-02  1.3840300E-02   1.673436       19.36303    
  1.3840300E-02  1.4190700E-02   1.549559       23.79762    
  1.4190700E-02  1.4549900E-02   1.360150       22.62009    
  1.4549900E-02  1.4918300E-02   1.155481       20.48685    
  1.4918300E-02  1.5295900E-02   1.549167       21.34300    
  1.5295900E-02  1.5683100E-02   1.870643       17.64472    
  1.5683100E-02  1.6080100E-02   1.405785       26.33466    
  1.6080100E-02  1.6487200E-02   1.252315       29.05495    
  1.6487200E-02  1.6904600E-02   1.444381       16.49657    
  1.6904600E-02  1.7332500E-02   1.068092       25.09431    
  1.7332500E-02  1.7771300E-02  0.8491609       20.59405    
  1.7771300E-02  1.8221200E-02   1.363334       20.85789    
  1.8221200E-02  1.8682500E-02  0.9926158       24.99846    
  1.8682500E-02  1.9155400E-02  0.9511269       18.72257    
  1.9155400E-02  1.9640300E-02   1.061569       29.04728    
  1.9640300E-02  2.0000000E-02  0.7195001       23.58672    
