 # Detector n:  1  HeIInflux 
 # N. of energy intervals 260
  1.0000100E-14  2.0000000E-13  2.4207024E+10   40.82047    
  2.0000000E-13  2.9297300E-13  9.4155301E+10   22.97622    
  2.9297300E-13  4.2916701E-13  8.3746611E+10   12.82089    
  4.2916701E-13  6.2867300E-13  1.5667914E+11   12.90472    
  6.2867300E-13  9.2092198E-13  1.5853532E+11   4.019746    
  9.2092198E-13  1.3490300E-12  2.6185107E+11   9.166544    
  1.3490300E-12  1.9761499E-12  3.3753871E+11   3.689951    
  1.9761499E-12  2.8947901E-12  4.3636811E+11   3.189165    
  2.8947901E-12  4.2404799E-12  5.1712026E+11   1.227828    
  4.2404799E-12  6.2117499E-12  6.1219478E+11   2.025129    
  6.2117499E-12  9.0993801E-12  6.1856947E+11   1.379988    
  9.0993801E-12  1.3329400E-11  5.7068598E+11   1.036991    
  1.3329400E-11  1.9525799E-11  4.3286302E+11   1.844828    
  1.9525799E-11  2.8602700E-11  2.7614334E+11   1.060530    
  2.8602700E-11  4.1899099E-11  1.3062945E+11   1.564466    
  4.1899099E-11  6.1376598E-11  5.4462906E+10   1.852368    
  6.1376598E-11  8.9908601E-11  2.0120400E+10   2.078906    
  8.9908601E-11  1.3170399E-10  6.4953948E+09   2.382226    
  1.3170399E-10  1.9292901E-10  2.0670318E+09   3.607627    
  1.9292901E-10  2.8261499E-10  9.1043642E+08   4.906570    
  2.8261499E-10  4.1399401E-10  4.8709696E+08   1.729517    
  4.1399401E-10  5.3157900E-10  3.4344160E+08   2.554390    
  5.3157900E-10  6.2506200E-10  2.6204190E+08   3.275788    
  6.2506200E-10  6.8256001E-10  2.3239907E+08   3.496304    
  6.8256001E-10  8.3368101E-10  2.1217994E+08   2.224184    
  8.3368101E-10  8.7642499E-10  1.6779459E+08   5.355811    
  8.7642499E-10  1.1253500E-09  1.4943070E+08   2.130268    
  1.1253500E-09  1.4449800E-09  1.0779769E+08   1.633175    
  1.4449800E-09  1.8553900E-09  8.2621024E+07   2.816664    
  1.8553900E-09  2.3823701E-09  6.3196544E+07   2.843752    
  2.3823701E-09  3.0590199E-09  4.7338668E+07   2.265765    
  3.0590199E-09  3.9278598E-09  3.5403020E+07   2.884213    
  3.9278598E-09  5.0434799E-09  2.7301346E+07   2.212913    
  5.0434799E-09  6.4759500E-09  1.9656366E+07   2.374585    
  6.4759500E-09  8.3152898E-09  1.5424396E+07   1.729514    
  8.3152898E-09  1.0677000E-08  1.1434780E+07   1.899373    
  1.0677000E-08  1.3709600E-08   8815605.       1.775525    
  1.3709600E-08  1.7603501E-08   6678812.       2.091813    
  1.7603501E-08  2.2603301E-08   5011471.       1.616117    
  2.2603301E-08  2.9023200E-08   3846159.       2.801318    
  2.9023200E-08  3.7266499E-08   2817461.       4.649612    
  3.7266499E-08  4.7851199E-08   2167055.       3.855782    
  4.7851199E-08  6.1442101E-08   1561438.       1.685487    
  6.1442101E-08  7.8893301E-08   1243896.       2.281935    
  7.8893301E-08  1.0130100E-07   941209.6      0.5146070    
  1.0130100E-07  1.3007300E-07   689976.5       4.284132    
  1.3007300E-07  1.6701701E-07   505040.2       3.957785    
  1.6701701E-07  2.1445400E-07   396029.8       3.921036    
  2.1445400E-07  2.7536399E-07   280361.8       3.335627    
  2.7536399E-07  3.5357499E-07   223347.2       4.343313    
  3.5357499E-07  4.5399901E-07   155005.1       3.259127    
  4.5399901E-07  5.8294700E-07   119743.4       2.682432    
  5.8294700E-07  7.4851800E-07   85040.77       2.088055    
  7.4851800E-07  9.6111603E-07   66380.58       5.656686    
  9.6111603E-07  1.2341000E-06   45000.35       2.917487    
  1.2341000E-06  1.3638900E-06   36767.04       3.867441    
  1.3638900E-06  1.5073300E-06   34967.75       5.379440    
  1.5073300E-06  1.5846100E-06   28302.35       10.27581    
  1.5846100E-06  1.6658601E-06   30051.08       12.22644    
  1.6658601E-06  1.8410600E-06   27438.84       5.788820    
  1.8410600E-06  2.0346799E-06   21849.97       6.875502    
  2.0346799E-06  2.2486699E-06   19457.75       7.001312    
  2.2486699E-06  2.4851699E-06   18519.45       5.603360    
  2.4851699E-06  2.6125899E-06   19742.96       7.994395    
  2.6125899E-06  2.7465401E-06   17371.53       12.87835    
  2.7465401E-06  2.8634900E-06   15062.99       11.81023    
  2.8634900E-06  3.0353899E-06   12604.12       8.592546    
  3.0353899E-06  3.3546301E-06   13391.91       5.231237    
  3.3546301E-06  3.7074401E-06   10999.63       9.796947    
  3.7074401E-06  4.0973500E-06   9143.374       7.011121    
  4.0973500E-06  4.3074201E-06   10247.73       11.01971    
  4.3074201E-06  4.5282700E-06   8786.061       5.864892    
  4.5282700E-06  5.0045101E-06   8541.812       4.440597    
  5.0045101E-06  5.5308401E-06   7278.786       7.932704    
  5.5308401E-06  6.2672698E-06   4839.629       9.298369    
  6.2672698E-06  7.1017398E-06   4657.662       10.56467    
  7.1017398E-06  8.0473301E-06   4709.151       6.439654    
  8.0473301E-06  9.1188203E-06   3753.935       9.300848    
  9.1188203E-06  1.0333000E-05   3398.516       10.06776    
  1.0333000E-05  1.1708800E-05   2455.573       3.939704    
  1.1708800E-05  1.3267800E-05   2214.802       8.353659    
  1.3267800E-05  1.5034400E-05   1994.726       7.005741    
  1.5034400E-05  1.7036200E-05   1656.138       6.980220    
  1.7036200E-05  1.9304500E-05   1343.102       10.42617    
  1.9304500E-05  2.1334799E-05   1187.850       5.066252    
  2.1334799E-05  2.1874899E-05   1067.487       23.21273    
  2.1874899E-05  2.3578599E-05   1049.947       12.10536    
  2.3578599E-05  2.4175501E-05   840.8250       14.52793    
  2.4175501E-05  2.4787500E-05   1009.829       14.00883    
  2.4787500E-05  2.6058400E-05   973.8596       12.41167    
  2.6058400E-05  2.8087899E-05   955.4208       8.237606    
  2.8087899E-05  3.1827800E-05   958.5821       7.764973    
  3.1827800E-05  3.4306700E-05   672.0120       12.18136    
  3.4306700E-05  3.5175199E-05   268.4278       23.76003    
  3.5175199E-05  3.6065601E-05   270.0872       37.72073    
  3.6065601E-05  4.0867701E-05   355.7104       11.49520    
  4.0867701E-05  4.6309200E-05   363.3502       13.77901    
  4.6309200E-05  5.2475199E-05   382.5853       9.474255    
  5.2475199E-05  5.6562199E-05   395.1204       10.72320    
  5.6562199E-05  5.9462200E-05   351.4540       10.78512    
  5.9462200E-05  6.2510902E-05   280.9478       17.62659    
  6.2510902E-05  6.7379500E-05   306.0764       8.907272    
  6.7379500E-05  7.6350902E-05   287.9539       7.765775    
  7.6350902E-05  8.6516899E-05   193.8305       7.848804    
  8.6516899E-05  9.8036500E-05   94.82479       11.58879    
  9.8036500E-05  1.1109000E-04   152.5060       7.777053    
  1.1109000E-04  1.1678600E-04   132.4670       14.22146    
  1.1678600E-04  1.2277300E-04   107.0552       15.80697    
  1.2277300E-04  1.2906799E-04   164.8542       15.72695    
  1.2906799E-04  1.3568600E-04   130.2748       10.94967    
  1.3568600E-04  1.4264201E-04   112.5461       16.88432    
  1.4264201E-04  1.4995600E-04   73.65446       21.98664    
  1.4995600E-04  1.5764400E-04   51.84842       27.77734    
  1.5764400E-04  1.6163501E-04   48.65222       24.03266    
  1.6163501E-04  1.6572700E-04   111.0309       22.97453    
  1.6572700E-04  1.6992200E-04   87.06744       24.10500    
  1.6992200E-04  1.7422400E-04   57.91177       30.74438    
  1.7422400E-04  1.8315599E-04   92.83836       15.55529    
  1.8315599E-04  1.9254700E-04   88.72787       17.97888    
  1.9254700E-04  2.0241900E-04   93.00436       19.55140    
  2.0241900E-04  2.1279699E-04   75.13652       12.04961    
  2.1279699E-04  2.2370800E-04   33.52553       16.99207    
  2.2370800E-04  2.3517800E-04   58.63707       21.37730    
  2.3517800E-04  2.4723500E-04   47.93573       19.16578    
  2.4723500E-04  2.5991100E-04   52.78649       14.90818    
  2.5991100E-04  2.7323700E-04   72.30870       5.638548    
  2.7323700E-04  2.8015400E-04   50.67054       12.62400    
  2.8015400E-04  2.8724599E-04   41.50073       25.45232    
  2.8724599E-04  2.9451799E-04   33.11753       28.32050    
  2.9451799E-04  3.0197401E-04   33.29099       20.38975    
  3.0197401E-04  3.0961799E-04   43.95875       15.39743    
  3.0961799E-04  3.1745600E-04   28.16265       31.37540    
  3.1745600E-04  3.3373301E-04   38.65990       19.05893    
  3.3373301E-04  3.5084400E-04   31.59614       14.06968    
  3.5084400E-04  3.6883200E-04   35.70785       16.20407    
  3.6883200E-04  3.8774201E-04   30.78271       25.49698    
  3.8774201E-04  4.0762199E-04   35.20824       16.80661    
  4.0762199E-04  4.2852099E-04   35.89278       17.77811    
  4.2852099E-04  4.5049199E-04   24.37235       11.28419    
  4.5049199E-04  4.7358900E-04   18.11662       22.95665    
  4.7358900E-04  4.9787102E-04   23.25312       15.24769    
  4.9787102E-04  5.1047403E-04   21.60541       25.24158    
  5.1047403E-04  5.2339700E-04   27.52833       15.84037    
  5.2339700E-04  5.3664698E-04   23.79521       23.67649    
  5.3664698E-04  5.5023201E-04   19.65975       33.24974    
  5.5023201E-04  5.7844300E-04   22.56825       12.74718    
  5.7844300E-04  6.0810102E-04   16.07027       11.18689    
  6.0810102E-04  6.3927902E-04   16.44041       14.91269    
  6.3927902E-04  6.7205500E-04   11.92643       11.03332    
  6.7205500E-04  7.0651202E-04   13.65539       9.047915    
  7.0651202E-04  7.4273598E-04   9.636264       13.77450    
  7.4273598E-04  7.8081700E-04   11.81208       19.99267    
  7.8081700E-04  8.2085002E-04   9.912374       13.84476    
  8.2085002E-04  8.6293602E-04   10.02517       19.06752    
  8.6293602E-04  9.0717903E-04   9.135900       14.55231    
  9.0717903E-04  9.5369201E-04   7.591654       21.48335    
  9.5369201E-04  9.6163998E-04   4.396646       51.61093    
  9.6163998E-04  9.7783399E-04   11.27736       27.51202    
  9.7783399E-04  1.0025901E-03   2.914747       21.35191    
  1.0025901E-03  1.0539900E-03   9.256399       20.92346    
  1.0539900E-03  1.1080300E-03   6.492859       13.70823    
  1.1080300E-03  1.1648400E-03   5.160673       12.45185    
  1.1648400E-03  1.1943300E-03   6.091169       43.87762    
  1.1943300E-03  1.2245600E-03   6.872444       9.693512    
  1.2245600E-03  1.2873500E-03   5.250584       15.58166    
  1.2873500E-03  1.3533500E-03   4.288060       27.23415    
  1.3533500E-03  1.4227401E-03   4.795391       14.54796    
  1.4227401E-03  1.4956900E-03   5.329115       13.85720    
  1.4956900E-03  1.5335500E-03   5.361677       25.95092    
  1.5335500E-03  1.5723699E-03   6.288931       24.27347    
  1.5723699E-03  1.6121800E-03   5.591940       18.13971    
  1.6121800E-03  1.6529900E-03   6.397911       24.28610    
  1.6529900E-03  1.7377400E-03   5.458025       14.49798    
  1.7377400E-03  1.8268300E-03   5.084438       14.46550    
  1.8268300E-03  1.8730800E-03   4.619975       22.56528    
  1.8730800E-03  1.9205000E-03   7.350826       18.38416    
  1.9205000E-03  1.9691200E-03   4.280975       26.42326    
  1.9691200E-03  2.0189700E-03   4.240390       32.76957    
  2.0189700E-03  2.1224800E-03   5.087852       16.30414    
  2.1224800E-03  2.2313001E-03   5.326107       14.36385    
  2.2313001E-03  2.2688799E-03   5.808038       24.85392    
  2.2688799E-03  2.3068599E-03   2.970258       21.31136    
  2.3068599E-03  2.3457000E-03   5.677833       32.50063    
  2.3457000E-03  2.3652499E-03   5.013460       20.75035    
  2.3652499E-03  2.3852000E-03   5.012700       41.40394    
  2.3852000E-03  2.4251300E-03   3.892666       30.82084    
  2.4251300E-03  2.4659701E-03   4.019414       37.63049    
  2.4659701E-03  2.5923999E-03   4.626949       13.62012    
  2.5923999E-03  2.7253199E-03   4.697036       23.12197    
  2.7253199E-03  2.8650500E-03   3.607587       19.40257    
  2.8650500E-03  3.0119400E-03   4.062737       24.53933    
  3.0119400E-03  3.0881900E-03   3.018530       27.74679    
  3.0881900E-03  3.1663701E-03   4.098823       30.93451    
  3.1663701E-03  3.2465300E-03   4.307537       32.79625    
  3.2465300E-03  3.3287101E-03   2.230154       34.14126    
  3.3287101E-03  3.4993801E-03   3.036980       14.21185    
  3.4993801E-03  3.6787901E-03   2.804732       13.65371    
  3.6787901E-03  3.8674099E-03   3.099242       13.79034    
  3.8674099E-03  4.0656999E-03   3.206925       10.09412    
  4.0656999E-03  4.2741499E-03   3.448190       9.372209    
  4.2741499E-03  4.4932901E-03   1.877258       18.25698    
  4.4932901E-03  4.6070400E-03   3.041484       24.46007    
  4.6070400E-03  4.7236700E-03   2.107897       19.05064    
  4.7236700E-03  4.8432499E-03   2.628126       27.72216    
  4.8432499E-03  4.9658502E-03   2.662690       28.39068    
  4.9658502E-03  5.2204598E-03   1.860439       12.54187    
  5.2204598E-03  5.4881200E-03   2.353640       23.68133    
  5.4881200E-03  5.7695000E-03   2.276083       13.00668    
  5.7695000E-03  5.9155500E-03   1.661810       15.97896    
  5.9155500E-03  6.0653100E-03   2.768610       32.61649    
  6.0653100E-03  6.2188501E-03   1.796214       27.00937    
  6.2188501E-03  6.3762800E-03   1.332436       23.95747    
  6.3762800E-03  6.5377001E-03   1.851976       21.61268    
  6.5377001E-03  6.5923799E-03   2.923624       28.13970    
  6.5923799E-03  6.6475999E-03   1.882293       36.95273    
  6.6475999E-03  6.7031998E-03   2.270383       44.48209    
  6.7031998E-03  6.8728901E-03   2.228089       26.77585    
  6.8728901E-03  7.0468802E-03   2.030812       30.15589    
  7.0468802E-03  7.2252699E-03   1.588518       25.67082    
  7.2252699E-03  7.4081798E-03   1.414976       27.36328    
  7.4081798E-03  7.5957198E-03   1.355756       34.53319    
  7.5957198E-03  7.7880099E-03   1.446815       19.64740    
  7.7880099E-03  7.9851598E-03   1.061380       17.21242    
  7.9851598E-03  8.1873098E-03   1.246307       20.25126    
  8.1873098E-03  8.3945701E-03   1.480542       35.22852    
  8.3945701E-03  8.6070802E-03   1.561335       12.10365    
  8.6070802E-03  8.8249696E-03   1.702832       37.98318    
  8.8249696E-03  9.0483697E-03  0.8042265       25.01703    
  9.0483697E-03  9.2774397E-03   1.686855       12.34908    
  9.2774397E-03  9.5122904E-03   1.076786       16.63878    
  9.5122904E-03  9.7530996E-03   1.706815       16.52564    
  9.7530996E-03  9.9999998E-03  0.6814988       31.68772    
  9.9999998E-03  1.0253200E-02  0.9460343       25.32566    
  1.0253200E-02  1.0512700E-02  0.8413889       11.11554    
  1.0512700E-02  1.0778800E-02   1.243395       28.57876    
  1.0778800E-02  1.1051700E-02   1.278767       26.63498    
  1.1051700E-02  1.1331500E-02  0.6844794       30.64910    
  1.1331500E-02  1.1618300E-02  0.7061757       29.19191    
  1.1618300E-02  1.1912500E-02  0.7265410       16.77224    
  1.1912500E-02  1.2214000E-02   1.320256       22.50740    
  1.2214000E-02  1.2523200E-02  0.8842198       19.99687    
  1.2523200E-02  1.2840200E-02  0.9690328       33.78471    
  1.2840200E-02  1.3165300E-02  0.8615205       24.00011    
  1.3165300E-02  1.3498600E-02  0.7378543       14.99331    
  1.3498600E-02  1.3840300E-02  0.5057504       42.30368    
  1.3840300E-02  1.4190700E-02   1.041443       20.89941    
  1.4190700E-02  1.4549900E-02  0.5907809       25.86493    
  1.4549900E-02  1.4918300E-02  0.6880316       21.53656    
  1.4918300E-02  1.5295900E-02  0.5922402       36.60601    
  1.5295900E-02  1.5683100E-02  0.5789605       26.34866    
  1.5683100E-02  1.6080100E-02  0.7369800       16.22031    
  1.6080100E-02  1.6487200E-02  0.9964708       24.79268    
  1.6487200E-02  1.6904600E-02  0.6478960       34.39843    
  1.6904600E-02  1.7332500E-02  0.7731509       18.41360    
  1.7332500E-02  1.7771300E-02  0.3326229       18.65437    
  1.7771300E-02  1.8221200E-02  0.6145440       30.85866    
  1.8221200E-02  1.8682500E-02  0.4244085       40.60129    
  1.8682500E-02  1.9155400E-02  0.5189997       20.61615    
  1.9155400E-02  1.9640300E-02  0.7004409       30.90949    
  1.9640300E-02  2.0000000E-02  0.6810906       32.90299    
