 # Detector n:            1   HeIInflux 
 # N. of energy intervals         260
  1.0000100E-14  2.0000000E-13  8.7739924E+09   1.583704    
  2.0000000E-13  2.9297300E-13  1.9178486E+10   1.663977    
  2.9297300E-13  4.2916701E-13  2.7200119E+10   1.161868    
  4.2916701E-13  6.2867300E-13  3.9103771E+10  0.8502216    
  6.2867300E-13  9.2092198E-13  5.2945252E+10  0.5875616    
  9.2092198E-13  1.3490300E-12  7.1268311E+10  0.4299370    
  1.3490300E-12  1.9761499E-12  9.1309425E+10  0.3412808    
  1.9761499E-12  2.8947901E-12  1.1459308E+11  0.2407727    
  2.8947901E-12  4.2404799E-12  1.3641772E+11  0.1892325    
  4.2404799E-12  6.2117499E-12  1.5014617E+11  0.1582317    
  6.2117499E-12  9.0993801E-12  1.5164255E+11  0.1396513    
  9.0993801E-12  1.3329400E-11  1.3658627E+11  0.1303456    
  1.3329400E-11  1.9525799E-11  1.0604093E+11  0.1205843    
  1.9525799E-11  2.8602700E-11  6.8581360E+10  0.1187248    
  2.8602700E-11  4.1899099E-11  3.6645249E+10  0.1386825    
  4.1899099E-11  6.1376598E-11  1.7494614E+10  0.1588282    
  6.1376598E-11  8.9908601E-11  7.5358863E+09  0.1707705    
  8.9908601E-11  1.3170399E-10  2.6757484E+09  0.2360994    
  1.3170399E-10  1.9292901E-10  8.3904442E+08  0.3050291    
  1.9292901E-10  2.8261499E-10  3.1406906E+08  0.4207750    
  2.8261499E-10  4.1399401E-10  1.6609800E+08  0.5178236    
  4.1399401E-10  5.3157900E-10  1.1386377E+08  0.6429155    
  5.3157900E-10  6.2506200E-10  8.9238400E+07  0.7579523    
  6.2506200E-10  6.8256001E-10  7.5827328E+07   1.055631    
  6.8256001E-10  8.3368101E-10  6.4424092E+07  0.7353112    
  8.3368101E-10  8.7642499E-10  5.6554068E+07   1.431429    
  8.7642499E-10  1.1253500E-09  4.7365076E+07  0.6457906    
  1.1253500E-09  1.4449800E-09  3.5758808E+07  0.6671373    
  1.4449800E-09  1.8553900E-09  2.7186048E+07  0.6368625    
  1.8553900E-09  2.3823701E-09  2.0551014E+07  0.6886185    
  2.3823701E-09  3.0590199E-09  1.5713107E+07  0.6944960    
  3.0590199E-09  3.9278598E-09  1.1821647E+07  0.6859024    
  3.9278598E-09  5.0434799E-09   9057508.      0.7520421    
  5.0434799E-09  6.4759500E-09   6927698.      0.7278595    
  6.4759500E-09  8.3152898E-09   5299422.      0.7153502    
  8.3152898E-09  1.0677000E-08   3989164.      0.7676628    
  1.0677000E-08  1.3709600E-08   3056916.      0.7785162    
  1.3709600E-08  1.7603501E-08   2347114.      0.7187205    
  1.7603501E-08  2.2603301E-08   1790379.      0.7545396    
  2.2603301E-08  2.9023200E-08   1347714.      0.7444730    
  2.9023200E-08  3.7266499E-08   1021177.      0.7825355    
  3.7266499E-08  4.7851199E-08   781261.1      0.7773874    
  4.7851199E-08  6.1442101E-08   595542.9      0.7660420    
  6.1442101E-08  7.8893301E-08   450458.4      0.8012379    
  7.8893301E-08  1.0130100E-07   342598.2      0.7978899    
  1.0130100E-07  1.3007300E-07   258524.9      0.8305588    
  1.3007300E-07  1.6701701E-07   197059.8      0.8570784    
  1.6701701E-07  2.1445400E-07   148821.1      0.8483434    
  2.1445400E-07  2.7536399E-07   110729.9      0.8099193    
  2.7536399E-07  3.5357499E-07   84767.30      0.8850544    
  3.5357499E-07  4.5399901E-07   62586.23      0.8674234    
  4.5399901E-07  5.8294700E-07   48041.10      0.8674728    
  5.8294700E-07  7.4851800E-07   35918.12      0.8466524    
  7.4851800E-07  9.6111603E-07   27056.43      0.9154325    
  9.6111603E-07  1.2341000E-06   20524.27      0.9202088    
  1.2341000E-06  1.3638900E-06   16780.30       1.496340    
  1.3638900E-06  1.5073300E-06   14569.88       1.502353    
  1.5073300E-06  1.5846100E-06   13536.25       1.972613    
  1.5846100E-06  1.6658601E-06   13558.49       2.093104    
  1.6658601E-06  1.8410600E-06   12238.12       1.383790    
  1.8410600E-06  2.0346799E-06   11006.85       1.520231    
  2.0346799E-06  2.2486699E-06   8610.633       1.664906    
  2.2486699E-06  2.4851699E-06   8564.562       1.412861    
  2.4851699E-06  2.6125899E-06   7600.529       2.050472    
  2.6125899E-06  2.7465401E-06   6883.940       2.235488    
  2.7465401E-06  2.8634900E-06   6809.754       2.507087    
  2.8634900E-06  3.0353899E-06   6499.178       1.986120    
  3.0353899E-06  3.3546301E-06   5855.011       1.561221    
  3.3546301E-06  3.7074401E-06   5331.382       1.492812    
  3.7074401E-06  4.0973500E-06   4709.687       1.541122    
  4.0973500E-06  4.3074201E-06   4174.128       2.245066    
  4.3074201E-06  4.5282700E-06   4191.543       2.168244    
  4.5282700E-06  5.0045101E-06   3722.652       1.511278    
  5.0045101E-06  5.5308401E-06   3794.126       1.426272    
  5.5308401E-06  6.2672698E-06   2396.770       1.511216    
  6.2672698E-06  7.1017398E-06   2520.541       1.416615    
  7.1017398E-06  8.0473301E-06   2199.577       1.472337    
  8.0473301E-06  9.1188203E-06   1931.848       1.442789    
  9.1188203E-06  1.0333000E-05   1649.801       1.559201    
  1.0333000E-05  1.1708800E-05   1436.730       1.532687    
  1.1708800E-05  1.3267800E-05   1246.014       1.549530    
  1.3267800E-05  1.5034400E-05   1078.237       1.441841    
  1.5034400E-05  1.7036200E-05   897.7325       1.536060    
  1.7036200E-05  1.9304500E-05   804.5677       1.453972    
  1.9304500E-05  2.1334799E-05   684.0330       1.790624    
  2.1334799E-05  2.1874899E-05   614.3978       3.523740    
  2.1874899E-05  2.3578599E-05   612.4981       1.964383    
  2.3578599E-05  2.4175501E-05   551.4954       3.515991    
  2.4175501E-05  2.4787500E-05   553.2100       3.534504    
  2.4787500E-05  2.6058400E-05   561.1459       2.453709    
  2.6058400E-05  2.8087899E-05   542.2564       1.973606    
  2.8087899E-05  3.1827800E-05   582.3134       1.410951    
  3.1827800E-05  3.4306700E-05   340.9774       2.125536    
  3.4306700E-05  3.5175199E-05   168.8867       5.323370    
  3.5175199E-05  3.6065601E-05   159.6764       5.123431    
  3.6065601E-05  4.0867701E-05   212.0026       1.935151    
  4.0867701E-05  4.6309200E-05   264.0405       1.667194    
  4.6309200E-05  5.2475199E-05   240.6213       1.631074    
  5.2475199E-05  5.6562199E-05   212.6001       2.207709    
  5.6562199E-05  5.9462200E-05   200.2560       2.468668    
  5.9462200E-05  6.2510902E-05   192.9989       2.601002    
  6.2510902E-05  6.7379500E-05   187.9633       2.118736    
  6.7379500E-05  7.6350902E-05   201.0302       1.575041    
  7.6350902E-05  8.6516899E-05   136.3634       1.751434    
  8.6516899E-05  9.8036500E-05   77.00584       2.155101    
  9.8036500E-05  1.1109000E-04   100.7688       1.761146    
  1.1109000E-04  1.1678600E-04   96.12489       2.422189    
  1.1678600E-04  1.2277300E-04   68.40848       3.021339    
  1.2277300E-04  1.2906799E-04   108.5019       2.528191    
  1.2906799E-04  1.3568600E-04   110.4442       2.479099    
  1.3568600E-04  1.4264201E-04   79.82169       2.422313    
  1.4264201E-04  1.4995600E-04   58.83751       2.823260    
  1.4995600E-04  1.5764400E-04   53.54292       2.944307    
  1.5764400E-04  1.6163501E-04   46.76031       4.282118    
  1.6163501E-04  1.6572700E-04   55.27111       3.872614    
  1.6572700E-04  1.6992200E-04   56.68369       3.771548    
  1.6992200E-04  1.7422400E-04   59.99689       3.603449    
  1.7422400E-04  1.8315599E-04   61.62970       2.507589    
  1.8315599E-04  1.9254700E-04   60.39005       2.488296    
  1.9254700E-04  2.0241900E-04   57.23633       2.566343    
  2.0241900E-04  2.1279699E-04   45.69614       2.764437    
  2.1279699E-04  2.2370800E-04   45.02794       2.601069    
  2.2370800E-04  2.3517800E-04   45.44508       2.642919    
  2.3517800E-04  2.4723500E-04   43.73069       2.398279    
  2.4723500E-04  2.5991100E-04   46.83943       2.540765    
  2.5991100E-04  2.7323700E-04   47.59325       2.373065    
  2.7323700E-04  2.8015400E-04   42.44185       3.092230    
  2.8015400E-04  2.8724599E-04   33.97146       3.482561    
  2.8724599E-04  2.9451799E-04   31.89891       3.728680    
  2.9451799E-04  3.0197401E-04   35.06044       3.402216    
  3.0197401E-04  3.0961799E-04   33.96688       3.499210    
  3.0961799E-04  3.1745600E-04   31.34423       3.563072    
  3.1745600E-04  3.3373301E-04   34.42416       2.374166    
  3.3373301E-04  3.5084400E-04   31.27869       2.515233    
  3.5084400E-04  3.6883200E-04   30.04446       2.677486    
  3.6883200E-04  3.8774201E-04   27.86403       2.446508    
  3.8774201E-04  4.0762199E-04   26.79608       2.435535    
  4.0762199E-04  4.2852099E-04   23.14997       2.537139    
  4.2852099E-04  4.5049199E-04   21.72400       2.607420    
  4.5049199E-04  4.7358900E-04   20.44132       2.500118    
  4.7358900E-04  4.9787102E-04   20.30835       2.447608    
  4.9787102E-04  5.1047403E-04   18.97913       3.481409    
  5.1047403E-04  5.2339700E-04   18.75965       3.323777    
  5.2339700E-04  5.3664698E-04   15.66778       3.487503    
  5.3664698E-04  5.5023201E-04   16.85457       3.674155    
  5.5023201E-04  5.7844300E-04   15.67297       2.273076    
  5.7844300E-04  6.0810102E-04   14.98142       2.367484    
  6.0810102E-04  6.3927902E-04   13.40323       2.856817    
  6.3927902E-04  6.7205500E-04   11.52188       2.556150    
  6.7205500E-04  7.0651202E-04   11.09327       2.543778    
  7.0651202E-04  7.4273598E-04   10.46216       2.436196    
  7.4273598E-04  7.8081700E-04   9.332488       2.525334    
  7.8081700E-04  8.2085002E-04   7.694149       2.612475    
  8.2085002E-04  8.6293602E-04   6.792259       2.593577    
  8.6293602E-04  9.0717903E-04   6.303251       2.664956    
  9.0717903E-04  9.5369201E-04   5.524318       2.372166    
  9.5369201E-04  9.6163998E-04   5.223938       6.556066    
  9.6163998E-04  9.7783399E-04   5.125638       4.111466    
  9.7783399E-04  1.0025901E-03   4.766908       3.383890    
  1.0025901E-03  1.0539900E-03   4.754640       2.209389    
  1.0539900E-03  1.1080300E-03   4.405740       2.521191    
  1.1080300E-03  1.1648400E-03   4.244766       2.595101    
  1.1648400E-03  1.1943300E-03   3.996041       3.406310    
  1.1943300E-03  1.2245600E-03   4.025155       3.649932    
  1.2245600E-03  1.2873500E-03   3.952982       2.487068    
  1.2873500E-03  1.3533500E-03   4.055202       2.341306    
  1.3533500E-03  1.4227401E-03   4.073248       2.297810    
  1.4227401E-03  1.4956900E-03   4.030724       2.236950    
  1.4956900E-03  1.5335500E-03   4.066821       3.438676    
  1.5335500E-03  1.5723699E-03   3.984370       3.008984    
  1.5723699E-03  1.6121800E-03   4.158635       3.486243    
  1.6121800E-03  1.6529900E-03   4.129727       3.093554    
  1.6529900E-03  1.7377400E-03   3.986795       2.524311    
  1.7377400E-03  1.8268300E-03   3.862165       2.337070    
  1.8268300E-03  1.8730800E-03   4.056657       3.418810    
  1.8730800E-03  1.9205000E-03   3.983065       3.289804    
  1.9205000E-03  1.9691200E-03   3.806991       3.295161    
  1.9691200E-03  2.0189700E-03   3.893080       3.191638    
  2.0189700E-03  2.1224800E-03   3.509485       2.478330    
  2.1224800E-03  2.2313001E-03   3.734435       2.593189    
  2.2313001E-03  2.2688799E-03   3.523208       3.849977    
  2.2688799E-03  2.3068599E-03   3.542149       3.938780    
  2.3068599E-03  2.3457000E-03   3.562768       3.822127    
  2.3457000E-03  2.3652499E-03   3.634346       5.844535    
  2.3652499E-03  2.3852000E-03   3.539871       5.670232    
  2.3852000E-03  2.4251300E-03   3.486973       4.103314    
  2.4251300E-03  2.4659701E-03   3.590034       4.021397    
  2.4659701E-03  2.5923999E-03   3.077299       2.527079    
  2.5923999E-03  2.7253199E-03   3.065964       2.501483    
  2.7253199E-03  2.8650500E-03   3.008932       2.549824    
  2.8650500E-03  3.0119400E-03   2.912154       2.713059    
  3.0119400E-03  3.0881900E-03   2.802286       3.573148    
  3.0881900E-03  3.1663701E-03   2.758095       3.283337    
  3.1663701E-03  3.2465300E-03   2.721050       3.592397    
  3.2465300E-03  3.3287101E-03   2.522667       3.543353    
  3.3287101E-03  3.4993801E-03   2.402022       2.644654    
  3.4993801E-03  3.6787901E-03   2.370740       2.542707    
  3.6787901E-03  3.8674099E-03   2.320094       2.579764    
  3.8674099E-03  4.0656999E-03   2.177784       2.585784    
  4.0656999E-03  4.2741499E-03   2.181915       2.649078    
  4.2741499E-03  4.4932901E-03   2.068172       2.498800    
  4.4932901E-03  4.6070400E-03   1.994288       3.771253    
  4.6070400E-03  4.7236700E-03   1.986708       3.570367    
  4.7236700E-03  4.8432499E-03   1.942848       3.325823    
  4.8432499E-03  4.9658502E-03   1.853412       3.474211    
  4.9658502E-03  5.2204598E-03   1.775320       2.697620    
  5.2204598E-03  5.4881200E-03   1.730006       2.467937    
  5.4881200E-03  5.7695000E-03   1.661799       2.549806    
  5.7695000E-03  5.9155500E-03   1.511909       3.911888    
  5.9155500E-03  6.0653100E-03   1.486036       3.439081    
  6.0653100E-03  6.2188501E-03   1.455266       3.829190    
  6.2188501E-03  6.3762800E-03   1.415724       3.596635    
  6.3762800E-03  6.5377001E-03   1.493702       3.753268    
  6.5377001E-03  6.5923799E-03   1.500037       6.495570    
  6.5923799E-03  6.6475999E-03   1.407332       6.846607    
  6.6475999E-03  6.7031998E-03   1.435156       6.242569    
  6.7031998E-03  6.8728901E-03   1.329663       3.702129    
  6.8728901E-03  7.0468802E-03   1.374986       3.588488    
  7.0468802E-03  7.2252699E-03   1.367915       3.986588    
  7.2252699E-03  7.4081798E-03   1.232569       3.893820    
  7.4081798E-03  7.5957198E-03   1.084661       3.774603    
  7.5957198E-03  7.7880099E-03   1.136166       3.870320    
  7.7880099E-03  7.9851598E-03   1.146026       3.601246    
  7.9851598E-03  8.1873098E-03   1.075237       4.241508    
  8.1873098E-03  8.3945701E-03   1.105883       3.612458    
  8.3945701E-03  8.6070802E-03   1.126298       3.993405    
  8.6070802E-03  8.8249696E-03   1.081897       4.274484    
  8.8249696E-03  9.0483697E-03   1.045152       3.686769    
  9.0483697E-03  9.2774397E-03  0.9672752       4.165067    
  9.2774397E-03  9.5122904E-03  0.9554428       3.907933    
  9.5122904E-03  9.7530996E-03  0.9841864       3.889711    
  9.7530996E-03  9.9999998E-03  0.9678639       3.751689    
  9.9999998E-03  1.0253200E-02  0.8989387       3.966909    
  1.0253200E-02  1.0512700E-02  0.9743922       3.838318    
  1.0512700E-02  1.0778800E-02  0.8989548       3.990158    
  1.0778800E-02  1.1051700E-02  0.8836268       3.817070    
  1.1051700E-02  1.1331500E-02  0.7835304       3.890348    
  1.1331500E-02  1.1618300E-02  0.7916753       4.188842    
  1.1618300E-02  1.1912500E-02  0.8125834       3.908280    
  1.1912500E-02  1.2214000E-02  0.8183879       3.883464    
  1.2214000E-02  1.2523200E-02  0.7362231       3.690880    
  1.2523200E-02  1.2840200E-02  0.7239665       3.882820    
  1.2840200E-02  1.3165300E-02  0.7982244       4.066412    
  1.3165300E-02  1.3498600E-02  0.7330052       3.584697    
  1.3498600E-02  1.3840300E-02  0.7498823       3.923462    
  1.3840300E-02  1.4190700E-02  0.7163035       3.988082    
  1.4190700E-02  1.4549900E-02  0.7518142       3.953160    
  1.4549900E-02  1.4918300E-02  0.7052636       3.944155    
  1.4918300E-02  1.5295900E-02  0.6838735       4.343544    
  1.5295900E-02  1.5683100E-02  0.6837933       3.825459    
  1.5683100E-02  1.6080100E-02  0.6084783       4.176136    
  1.6080100E-02  1.6487200E-02  0.6311001       3.954457    
  1.6487200E-02  1.6904600E-02  0.6545357       3.910313    
  1.6904600E-02  1.7332500E-02  0.6164691       3.899531    
  1.7332500E-02  1.7771300E-02  0.6198254       3.701332    
  1.7771300E-02  1.8221200E-02  0.6461027       3.972414    
  1.8221200E-02  1.8682500E-02  0.5454420       4.121023    
  1.8682500E-02  1.9155400E-02  0.5780310       3.764691    
  1.9155400E-02  1.9640300E-02  0.5129197       3.961719    
  1.9640300E-02  2.0000000E-02  0.5650992       4.406560    
