 # Detector n:            1   HeIInflux 
 # N. of energy intervals         260
  1.0000100E-14  2.0000000E-13  9.3576864E+10  0.9965514    
  2.0000000E-13  2.9297300E-13  2.0340657E+11   1.023156    
  2.9297300E-13  4.2916701E-13  2.8486746E+11  0.6792234    
  4.2916701E-13  6.2867300E-13  4.0610651E+11  0.4674142    
  6.2867300E-13  9.2092198E-13  5.6299769E+11  0.3500613    
  9.2092198E-13  1.3490300E-12  7.4976245E+11  0.2362841    
  1.3490300E-12  1.9761499E-12  9.6860373E+11  0.1723421    
  1.9761499E-12  2.8947901E-12  1.2075385E+12  0.1385520    
  2.8947901E-12  4.2404799E-12  1.4368961E+12  0.1133267    
  4.2404799E-12  6.2117499E-12  1.5843719E+12  9.6832253E-02
  6.2117499E-12  9.0993801E-12  1.5986217E+12  8.5492291E-02
  9.0993801E-12  1.3329400E-11  1.4395739E+12  8.4346958E-02
  1.3329400E-11  1.9525799E-11  1.1164073E+12  8.1066817E-02
  1.9525799E-11  2.8602700E-11  7.2221904E+11  7.7942252E-02
  2.8602700E-11  4.1899099E-11  3.8909824E+11  8.6511202E-02
  4.1899099E-11  6.1376598E-11  1.8742588E+11  8.8588990E-02
  6.1376598E-11  8.9908601E-11  8.2411512E+10  0.1028524    
  8.9908601E-11  1.3170399E-10  3.0953824E+10  0.1286196    
  1.3170399E-10  1.9292901E-10  1.0889284E+10  0.1659568    
  1.9292901E-10  2.8261499E-10  4.7553029E+09  0.2104456    
  2.8261499E-10  4.1399401E-10  2.7183002E+09  0.2193387    
  4.1399401E-10  5.3157900E-10  1.8917382E+09  0.3030528    
  5.3157900E-10  6.2506200E-10  1.5036474E+09  0.3615482    
  6.2506200E-10  6.8256001E-10  1.3048933E+09  0.5092548    
  6.8256001E-10  8.3368101E-10  1.1127946E+09  0.3539681    
  8.3368101E-10  8.7642499E-10  9.7913018E+08  0.7071668    
  8.7642499E-10  1.1253500E-09  8.2353978E+08  0.3157673    
  1.1253500E-09  1.4449800E-09  6.2777018E+08  0.3209769    
  1.4449800E-09  1.8553900E-09  4.8172144E+08  0.3040365    
  1.8553900E-09  2.3823701E-09  3.6444838E+08  0.3084391    
  2.3823701E-09  3.0590199E-09  2.8047136E+08  0.3194274    
  3.0590199E-09  3.9278598E-09  2.1353115E+08  0.3323643    
  3.9278598E-09  5.0434799E-09  1.6473950E+08  0.3256659    
  5.0434799E-09  6.4759500E-09  1.2698194E+08  0.3273432    
  6.4759500E-09  8.3152898E-09  9.7993320E+07  0.3344419    
  8.3152898E-09  1.0677000E-08  7.4987568E+07  0.3419172    
  1.0677000E-08  1.3709600E-08  5.7807584E+07  0.2870040    
  1.3709600E-08  1.7603501E-08  4.4263704E+07  0.3200683    
  1.7603501E-08  2.2603301E-08  3.3909560E+07  0.3261968    
  2.2603301E-08  2.9023200E-08  2.6087940E+07  0.3250573    
  2.9023200E-08  3.7266499E-08  1.9841850E+07  0.3131373    
  3.7266499E-08  4.7851199E-08  1.5109925E+07  0.3486624    
  4.7851199E-08  6.1442101E-08  1.1650912E+07  0.3774556    
  6.1442101E-08  7.8893301E-08   8883271.      0.3608397    
  7.8893301E-08  1.0130100E-07   6797228.      0.3373421    
  1.0130100E-07  1.3007300E-07   5151970.      0.3445009    
  1.3007300E-07  1.6701701E-07   3909980.      0.3670373    
  1.6701701E-07  2.1445400E-07   2978552.      0.3709661    
  2.1445400E-07  2.7536399E-07   2245515.      0.3840104    
  2.7536399E-07  3.5357499E-07   1709911.      0.3940608    
  3.5357499E-07  4.5399901E-07   1272704.      0.3968944    
  4.5399901E-07  5.8294700E-07   970976.5      0.3722267    
  5.8294700E-07  7.4851800E-07   740062.9      0.4119052    
  7.4851800E-07  9.6111603E-07   558045.8      0.3823278    
  9.6111603E-07  1.2341000E-06   419576.6      0.4026909    
  1.2341000E-06  1.3638900E-06   344382.6      0.6083832    
  1.3638900E-06  1.5073300E-06   308207.9      0.8923512    
  1.5073300E-06  1.5846100E-06   279172.3      0.9599882    
  1.5846100E-06  1.6658601E-06   267945.5      0.9089977    
  1.6658601E-06  1.8410600E-06   248209.2      0.7569858    
  1.8410600E-06  2.0346799E-06   226903.3      0.5625458    
  2.0346799E-06  2.2486699E-06   178669.9      0.7108712    
  2.2486699E-06  2.4851699E-06   170295.7      0.6990855    
  2.4851699E-06  2.6125899E-06   152492.5      0.9808705    
  2.6125899E-06  2.7465401E-06   140666.0      0.9859685    
  2.7465401E-06  2.8634900E-06   139761.9       1.031635    
  2.8634900E-06  3.0353899E-06   133218.4      0.7939528    
  3.0353899E-06  3.3546301E-06   120990.8      0.6572578    
  3.3546301E-06  3.7074401E-06   107495.7      0.6780171    
  3.7074401E-06  4.0973500E-06   96224.04      0.7656479    
  4.0973500E-06  4.3074201E-06   87777.45      0.9835721    
  4.3074201E-06  4.5282700E-06   81536.24       1.096296    
  4.5282700E-06  5.0045101E-06   76539.90      0.6876014    
  5.0045101E-06  5.5308401E-06   74846.85      0.6394333    
  5.5308401E-06  6.2672698E-06   48817.45      0.6684155    
  6.2672698E-06  7.1017398E-06   50395.62      0.6462879    
  7.1017398E-06  8.0473301E-06   44080.79      0.7018911    
  8.0473301E-06  9.1188203E-06   37327.64      0.6734481    
  9.1188203E-06  1.0333000E-05   32147.91      0.6650535    
  1.0333000E-05  1.1708800E-05   27751.14      0.7218403    
  1.1708800E-05  1.3267800E-05   23887.04      0.6820911    
  1.3267800E-05  1.5034400E-05   20016.30      0.7123992    
  1.5034400E-05  1.7036200E-05   17381.81      0.8007091    
  1.7036200E-05  1.9304500E-05   14794.68      0.7052739    
  1.9304500E-05  2.1334799E-05   12830.60      0.8547413    
  2.1334799E-05  2.1874899E-05   12271.33       1.595455    
  2.1874899E-05  2.3578599E-05   11197.60      0.9689922    
  2.3578599E-05  2.4175501E-05   10701.56       1.717418    
  2.4175501E-05  2.4787500E-05   10381.34       1.654979    
  2.4787500E-05  2.6058400E-05   9774.521       1.124796    
  2.6058400E-05  2.8087899E-05   9517.209      0.9560522    
  2.8087899E-05  3.1827800E-05   10078.22      0.6522846    
  3.1827800E-05  3.4306700E-05   5699.847       1.029739    
  3.4306700E-05  3.5175199E-05   2725.645       2.602238    
  3.5175199E-05  3.6065601E-05   2587.854       2.889344    
  3.6065601E-05  4.0867701E-05   3562.332       1.031787    
  4.0867701E-05  4.6309200E-05   4304.257      0.8373098    
  4.6309200E-05  5.2475199E-05   3976.875      0.8334123    
  5.2475199E-05  5.6562199E-05   3599.849       1.015083    
  5.6562199E-05  5.9462200E-05   3380.768       1.337304    
  5.9462200E-05  6.2510902E-05   3173.621       1.434328    
  6.2510902E-05  6.7379500E-05   3052.793       1.098441    
  6.7379500E-05  7.6350902E-05   3009.374      0.7649906    
  7.6350902E-05  8.6516899E-05   2024.068      0.8581722    
  8.6516899E-05  9.8036500E-05   1113.518       1.180868    
  9.8036500E-05  1.1109000E-04   1436.499      0.8921268    
  1.1109000E-04  1.1678600E-04   1450.801       1.419433    
  1.1678600E-04  1.2277300E-04   982.1530       1.574884    
  1.2277300E-04  1.2906799E-04   1454.854       1.297366    
  1.2906799E-04  1.3568600E-04   1455.174       1.354533    
  1.3568600E-04  1.4264201E-04   1075.560       1.469360    
  1.4264201E-04  1.4995600E-04   760.6526       1.728920    
  1.4995600E-04  1.5764400E-04   714.2784       1.941789    
  1.5764400E-04  1.6163501E-04   577.5838       2.471401    
  1.6163501E-04  1.6572700E-04   722.0134       2.447136    
  1.6572700E-04  1.6992200E-04   741.4092       2.091627    
  1.6992200E-04  1.7422400E-04   778.2842       2.416873    
  1.7422400E-04  1.8315599E-04   762.4254       1.600651    
  1.8315599E-04  1.9254700E-04   783.3943       1.496048    
  1.9254700E-04  2.0241900E-04   706.5955       1.506170    
  2.0241900E-04  2.1279699E-04   534.1873       1.506706    
  2.1279699E-04  2.2370800E-04   548.3251       1.521526    
  2.2370800E-04  2.3517800E-04   542.1899       1.813199    
  2.3517800E-04  2.4723500E-04   551.5007       1.475387    
  2.4723500E-04  2.5991100E-04   529.7278       1.424884    
  2.5991100E-04  2.7323700E-04   558.6879       1.505911    
  2.7323700E-04  2.8015400E-04   497.8987       2.010977    
  2.8015400E-04  2.8724599E-04   407.4582       2.380106    
  2.8724599E-04  2.9451799E-04   384.5087       2.518123    
  2.9451799E-04  3.0197401E-04   394.9704       2.229093    
  3.0197401E-04  3.0961799E-04   408.1261       2.108379    
  3.0961799E-04  3.1745600E-04   348.0641       2.429704    
  3.1745600E-04  3.3373301E-04   362.8416       1.580547    
  3.3373301E-04  3.5084400E-04   377.1671       1.695157    
  3.5084400E-04  3.6883200E-04   322.1614       1.687146    
  3.6883200E-04  3.8774201E-04   278.9678       1.727515    
  3.8774201E-04  4.0762199E-04   283.7620       1.765374    
  4.0762199E-04  4.2852099E-04   237.7014       1.613830    
  4.2852099E-04  4.5049199E-04   213.4208       1.671714    
  4.5049199E-04  4.7358900E-04   209.5248       1.589711    
  4.7358900E-04  4.9787102E-04   205.2568       1.677623    
  4.9787102E-04  5.1047403E-04   212.3223       2.044570    
  5.1047403E-04  5.2339700E-04   198.4889       2.236703    
  5.2339700E-04  5.3664698E-04   161.7527       2.320156    
  5.3664698E-04  5.5023201E-04   167.9675       2.279664    
  5.5023201E-04  5.7844300E-04   160.4996       1.736176    
  5.7844300E-04  6.0810102E-04   150.9576       1.804156    
  6.0810102E-04  6.3927902E-04   138.1462       1.638205    
  6.3927902E-04  6.7205500E-04   119.5766       1.737899    
  6.7205500E-04  7.0651202E-04   112.0843       1.741630    
  7.0651202E-04  7.4273598E-04   100.9217       1.795973    
  7.4273598E-04  7.8081700E-04   86.97527       1.819687    
  7.8081700E-04  8.2085002E-04   71.09566       1.808072    
  8.2085002E-04  8.6293602E-04   64.19508       1.930893    
  8.6293602E-04  9.0717903E-04   56.68880       1.751438    
  9.0717903E-04  9.5369201E-04   53.55844       1.647385    
  9.5369201E-04  9.6163998E-04   45.43110       4.285762    
  9.6163998E-04  9.7783399E-04   46.52645       2.949148    
  9.7783399E-04  1.0025901E-03   47.04283       2.493988    
  1.0025901E-03  1.0539900E-03   43.36903       1.787892    
  1.0539900E-03  1.1080300E-03   43.01659       1.784919    
  1.1080300E-03  1.1648400E-03   39.22711       1.650542    
  1.1648400E-03  1.1943300E-03   39.06176       2.495222    
  1.1943300E-03  1.2245600E-03   40.69218       2.348521    
  1.2245600E-03  1.2873500E-03   38.00750       1.734608    
  1.2873500E-03  1.3533500E-03   37.90362       1.572384    
  1.3533500E-03  1.4227401E-03   39.83966       1.559317    
  1.4227401E-03  1.4956900E-03   38.52635       1.779368    
  1.4956900E-03  1.5335500E-03   37.20580       2.324170    
  1.5335500E-03  1.5723699E-03   37.98872       2.198191    
  1.5723699E-03  1.6121800E-03   37.70793       2.315455    
  1.6121800E-03  1.6529900E-03   37.29005       2.428248    
  1.6529900E-03  1.7377400E-03   36.83052       1.746739    
  1.7377400E-03  1.8268300E-03   35.86660       1.748555    
  1.8268300E-03  1.8730800E-03   36.62484       2.432598    
  1.8730800E-03  1.9205000E-03   35.10164       2.307887    
  1.9205000E-03  1.9691200E-03   34.68599       2.373988    
  1.9691200E-03  2.0189700E-03   34.15505       2.444668    
  2.0189700E-03  2.1224800E-03   32.73460       1.685405    
  2.1224800E-03  2.2313001E-03   32.65897       1.694315    
  2.2313001E-03  2.2688799E-03   31.46437       2.697306    
  2.2688799E-03  2.3068599E-03   31.49917       3.192022    
  2.3068599E-03  2.3457000E-03   29.91998       2.930503    
  2.3457000E-03  2.3652499E-03   31.03626       4.065781    
  2.3652499E-03  2.3852000E-03   32.58273       3.998794    
  2.3852000E-03  2.4251300E-03   29.52665       2.833075    
  2.4251300E-03  2.4659701E-03   29.70117       2.901807    
  2.4659701E-03  2.5923999E-03   27.06169       1.932296    
  2.5923999E-03  2.7253199E-03   25.49508       1.721217    
  2.7253199E-03  2.8650500E-03   23.75998       1.752323    
  2.8650500E-03  3.0119400E-03   22.15480       1.929792    
  3.0119400E-03  3.0881900E-03   21.35122       2.528816    
  3.0881900E-03  3.1663701E-03   20.66434       2.952349    
  3.1663701E-03  3.2465300E-03   19.97420       2.500541    
  3.2465300E-03  3.3287101E-03   18.08439       2.593742    
  3.3287101E-03  3.4993801E-03   17.80083       2.073797    
  3.4993801E-03  3.6787901E-03   17.65193       1.798286    
  3.6787901E-03  3.8674099E-03   15.68569       1.896070    
  3.8674099E-03  4.0656999E-03   16.38945       1.972531    
  4.0656999E-03  4.2741499E-03   15.89223       2.077692    
  4.2741499E-03  4.4932901E-03   13.64453       2.019454    
  4.4932901E-03  4.6070400E-03   13.35822       2.691600    
  4.6070400E-03  4.7236700E-03   13.77797       2.921503    
  4.7236700E-03  4.8432499E-03   13.28433       2.732272    
  4.8432499E-03  4.9658502E-03   12.77215       2.648443    
  4.9658502E-03  5.2204598E-03   11.99670       2.131772    
  5.2204598E-03  5.4881200E-03   11.47941       2.147085    
  5.4881200E-03  5.7695000E-03   10.87367       1.836961    
  5.7695000E-03  5.9155500E-03   9.786204       3.154844    
  5.9155500E-03  6.0653100E-03   9.231322       2.986817    
  6.0653100E-03  6.2188501E-03   9.509088       2.912949    
  6.2188501E-03  6.3762800E-03   9.514610       2.990510    
  6.3762800E-03  6.5377001E-03   8.988167       2.913203    
  6.5377001E-03  6.5923799E-03   8.609853       4.793235    
  6.5923799E-03  6.6475999E-03   8.867003       5.048351    
  6.6475999E-03  6.7031998E-03   8.944511       4.985018    
  6.7031998E-03  6.8728901E-03   8.413772       3.288947    
  6.8728901E-03  7.0468802E-03   8.431715       2.884725    
  7.0468802E-03  7.2252699E-03   7.654223       3.214315    
  7.2252699E-03  7.4081798E-03   7.419410       3.200249    
  7.4081798E-03  7.5957198E-03   7.380985       3.058078    
  7.5957198E-03  7.7880099E-03   7.359787       3.198427    
  7.7880099E-03  7.9851598E-03   6.983891       3.171410    
  7.9851598E-03  8.1873098E-03   7.152533       3.075977    
  8.1873098E-03  8.3945701E-03   6.550458       3.354551    
  8.3945701E-03  8.6070802E-03   6.544166       3.260833    
  8.6070802E-03  8.8249696E-03   5.737576       2.985339    
  8.8249696E-03  9.0483697E-03   5.701546       2.978064    
  9.0483697E-03  9.2774397E-03   5.683869       3.051967    
  9.2774397E-03  9.5122904E-03   6.078036       3.097478    
  9.5122904E-03  9.7530996E-03   5.300862       3.148998    
  9.7530996E-03  9.9999998E-03   5.042155       3.705642    
  9.9999998E-03  1.0253200E-02   4.999693       3.331451    
  1.0253200E-02  1.0512700E-02   5.081239       3.109294    
  1.0512700E-02  1.0778800E-02   4.868546       3.370698    
  1.0778800E-02  1.1051700E-02   4.507351       3.302283    
  1.1051700E-02  1.1331500E-02   4.414652       3.557393    
  1.1331500E-02  1.1618300E-02   4.232998       3.304972    
  1.1618300E-02  1.1912500E-02   4.077967       3.288616    
  1.1912500E-02  1.2214000E-02   4.185011       3.241128    
  1.2214000E-02  1.2523200E-02   3.939584       3.426268    
  1.2523200E-02  1.2840200E-02   4.085908       3.127895    
  1.2840200E-02  1.3165300E-02   4.108766       3.462749    
  1.3165300E-02  1.3498600E-02   3.858398       3.620519    
  1.3498600E-02  1.3840300E-02   3.629547       3.737057    
  1.3840300E-02  1.4190700E-02   3.726332       3.097490    
  1.4190700E-02  1.4549900E-02   3.717016       3.197897    
  1.4549900E-02  1.4918300E-02   3.395772       3.223802    
  1.4918300E-02  1.5295900E-02   3.351115       3.227973    
  1.5295900E-02  1.5683100E-02   3.411913       3.262203    
  1.5683100E-02  1.6080100E-02   3.338014       3.484395    
  1.6080100E-02  1.6487200E-02   3.375476       3.310283    
  1.6487200E-02  1.6904600E-02   3.167141       3.425302    
  1.6904600E-02  1.7332500E-02   3.079200       3.357237    
  1.7332500E-02  1.7771300E-02   2.928207       3.412451    
  1.7771300E-02  1.8221200E-02   2.514755       3.782215    
  1.8221200E-02  1.8682500E-02   2.598933       3.255492    
  1.8682500E-02  1.9155400E-02   2.447630       3.583369    
  1.9155400E-02  1.9640300E-02   2.521327       3.693466    
  1.9640300E-02  2.0000000E-02   2.232084       4.210875    
