 # Detector n:            1   HeIInflux 
 # N. of energy intervals         260
  1.0000100E-14  2.0000000E-13  8.8313702E+09   1.763512    
  2.0000000E-13  2.9297300E-13  2.0385292E+10   1.626262    
  2.9297300E-13  4.2916701E-13  2.8662952E+10   1.162945    
  4.2916701E-13  6.2867300E-13  4.0891646E+10  0.8003644    
  6.2867300E-13  9.2092198E-13  5.5600886E+10  0.6051443    
  9.2092198E-13  1.3490300E-12  7.4192773E+10  0.4212701    
  1.3490300E-12  1.9761499E-12  9.6599163E+10  0.3082548    
  1.9761499E-12  2.8947901E-12  1.2075046E+11  0.2335095    
  2.8947901E-12  4.2404799E-12  1.4281767E+11  0.1876842    
  4.2404799E-12  6.2117499E-12  1.5785461E+11  0.1586746    
  6.2117499E-12  9.0993801E-12  1.5937470E+11  0.1303697    
  9.0993801E-12  1.3329400E-11  1.4372186E+11  0.1188293    
  1.3329400E-11  1.9525799E-11  1.1152795E+11  0.1146147    
  1.9525799E-11  2.8602700E-11  7.1986921E+10  0.1192669    
  2.8602700E-11  4.1899099E-11  3.8531449E+10  0.1244543    
  4.1899099E-11  6.1376598E-11  1.8400315E+10  0.1398031    
  6.1376598E-11  8.9908601E-11  7.9416643E+09  0.1764074    
  8.9908601E-11  1.3170399E-10  2.8161521E+09  0.2272025    
  1.3170399E-10  1.9292901E-10  8.7759878E+08  0.3194394    
  1.9292901E-10  2.8261499E-10  3.2685725E+08  0.4261950    
  2.8261499E-10  4.1399401E-10  1.7188574E+08  0.4908646    
  4.1399401E-10  5.3157900E-10  1.1737262E+08  0.6097494    
  5.3157900E-10  6.2506200E-10  9.1625352E+07  0.8007304    
  6.2506200E-10  6.8256001E-10  8.0192456E+07   1.032825    
  6.8256001E-10  8.3368101E-10  6.7384680E+07  0.7397131    
  8.3368101E-10  8.7642499E-10  5.8893992E+07   1.368479    
  8.7642499E-10  1.1253500E-09  4.9397888E+07  0.6201568    
  1.1253500E-09  1.4449800E-09  3.6841448E+07  0.6346399    
  1.4449800E-09  1.8553900E-09  2.7866560E+07  0.6572022    
  1.8553900E-09  2.3823701E-09  2.1250180E+07  0.6551265    
  2.3823701E-09  3.0590199E-09  1.6328432E+07  0.6920886    
  3.0590199E-09  3.9278598E-09  1.2272116E+07  0.7031493    
  3.9278598E-09  5.0434799E-09   9283215.      0.7089688    
  5.0434799E-09  6.4759500E-09   7159502.      0.7040660    
  6.4759500E-09  8.3152898E-09   5415292.      0.6853157    
  8.3152898E-09  1.0677000E-08   4141251.      0.6694589    
  1.0677000E-08  1.3709600E-08   3161297.      0.7357191    
  1.3709600E-08  1.7603501E-08   2410668.      0.7608802    
  1.7603501E-08  2.2603301E-08   1830382.      0.7472274    
  2.2603301E-08  2.9023200E-08   1388568.      0.7833266    
  2.9023200E-08  3.7266499E-08   1059393.      0.7728079    
  3.7266499E-08  4.7851199E-08   809521.2      0.7473253    
  4.7851199E-08  6.1442101E-08   615052.9      0.7922093    
  6.1442101E-08  7.8893301E-08   460281.1      0.6907195    
  7.8893301E-08  1.0130100E-07   350820.6      0.7708142    
  1.0130100E-07  1.3007300E-07   266905.1      0.7886996    
  1.3007300E-07  1.6701701E-07   201141.5      0.7575589    
  1.6701701E-07  2.1445400E-07   150622.4      0.8000989    
  2.1445400E-07  2.7536399E-07   112872.3      0.8802754    
  2.7536399E-07  3.5357499E-07   84953.18      0.8579139    
  3.5357499E-07  4.5399901E-07   63690.91      0.8248361    
  4.5399901E-07  5.8294700E-07   47984.49      0.9089555    
  5.8294700E-07  7.4851800E-07   37267.97      0.8698372    
  7.4851800E-07  9.6111603E-07   27841.83      0.8628095    
  9.6111603E-07  1.2341000E-06   20842.19      0.9029144    
  1.2341000E-06  1.3638900E-06   17003.95       1.358468    
  1.3638900E-06  1.5073300E-06   15421.82       1.425127    
  1.5073300E-06  1.5846100E-06   14304.53       1.852773    
  1.5846100E-06  1.6658601E-06   12943.24       2.097420    
  1.6658601E-06  1.8410600E-06   11837.57       1.334849    
  1.8410600E-06  2.0346799E-06   11313.03       1.466580    
  2.0346799E-06  2.2486699E-06   8926.327       1.583277    
  2.2486699E-06  2.4851699E-06   8733.595       1.420496    
  2.4851699E-06  2.6125899E-06   7452.502       2.333964    
  2.6125899E-06  2.7465401E-06   7069.635       2.023398    
  2.7465401E-06  2.8634900E-06   7047.434       2.454869    
  2.8634900E-06  3.0353899E-06   6743.115       1.917089    
  3.0353899E-06  3.3546301E-06   6209.298       1.564010    
  3.3546301E-06  3.7074401E-06   5472.278       1.511176    
  3.7074401E-06  4.0973500E-06   5043.908       1.562435    
  4.0973500E-06  4.3074201E-06   4401.131       2.127135    
  4.3074201E-06  4.5282700E-06   4140.491       2.115961    
  4.5282700E-06  5.0045101E-06   3865.834       1.529120    
  5.0045101E-06  5.5308401E-06   3913.750       1.446210    
  5.5308401E-06  6.2672698E-06   2507.462       1.459448    
  6.2672698E-06  7.1017398E-06   2611.920       1.410142    
  7.1017398E-06  8.0473301E-06   2246.911       1.500584    
  8.0473301E-06  9.1188203E-06   1975.481       1.445212    
  9.1188203E-06  1.0333000E-05   1655.838       1.419899    
  1.0333000E-05  1.1708800E-05   1466.549       1.415774    
  1.1708800E-05  1.3267800E-05   1314.635       1.435745    
  1.3267800E-05  1.5034400E-05   1094.828       1.429173    
  1.5034400E-05  1.7036200E-05   953.8265       1.502885    
  1.7036200E-05  1.9304500E-05   822.2462       1.429894    
  1.9304500E-05  2.1334799E-05   697.7469       1.654621    
  2.1334799E-05  2.1874899E-05   690.8131       3.249972    
  2.1874899E-05  2.3578599E-05   624.8764       1.850349    
  2.3578599E-05  2.4175501E-05   618.1182       3.333591    
  2.4175501E-05  2.4787500E-05   615.6937       3.556714    
  2.4787500E-05  2.6058400E-05   554.5754       2.209782    
  2.6058400E-05  2.8087899E-05   557.3490       1.925500    
  2.8087899E-05  3.1827800E-05   601.4354       1.312475    
  3.1827800E-05  3.4306700E-05   345.8415       2.897270    
  3.4306700E-05  3.5175199E-05   167.2350       4.465520    
  3.5175199E-05  3.6065601E-05   167.1461       4.652622    
  3.6065601E-05  4.0867701E-05   226.4062       1.944232    
  4.0867701E-05  4.6309200E-05   280.0797       1.772900    
  4.6309200E-05  5.2475199E-05   253.3550       1.585216    
  5.2475199E-05  5.6562199E-05   229.8143       2.054740    
  5.6562199E-05  5.9462200E-05   212.4414       2.507539    
  5.9462200E-05  6.2510902E-05   204.8632       2.561388    
  6.2510902E-05  6.7379500E-05   202.3551       2.031413    
  6.7379500E-05  7.6350902E-05   204.0890       1.385720    
  7.6350902E-05  8.6516899E-05   145.6981       1.594504    
  8.6516899E-05  9.8036500E-05   80.72401       1.919544    
  9.8036500E-05  1.1109000E-04   104.0053       1.611462    
  1.1109000E-04  1.1678600E-04   110.5125       2.348571    
  1.1678600E-04  1.2277300E-04   77.07305       2.545413    
  1.2277300E-04  1.2906799E-04   108.8516       2.159932    
  1.2906799E-04  1.3568600E-04   116.7461       2.220556    
  1.3568600E-04  1.4264201E-04   84.23469       2.408677    
  1.4264201E-04  1.4995600E-04   65.86986       2.731780    
  1.4995600E-04  1.5764400E-04   57.57193       2.622514    
  1.5764400E-04  1.6163501E-04   47.75067       3.982711    
  1.6163501E-04  1.6572700E-04   62.59402       3.695273    
  1.6572700E-04  1.6992200E-04   61.41210       3.588409    
  1.6992200E-04  1.7422400E-04   64.25319       3.717233    
  1.7422400E-04  1.8315599E-04   69.61874       2.517117    
  1.8315599E-04  1.9254700E-04   64.69123       2.479425    
  1.9254700E-04  2.0241900E-04   60.75713       2.568779    
  2.0241900E-04  2.1279699E-04   47.46529       2.663424    
  2.1279699E-04  2.2370800E-04   47.91094       2.679132    
  2.2370800E-04  2.3517800E-04   46.42030       2.918068    
  2.3517800E-04  2.4723500E-04   49.31881       2.326404    
  2.4723500E-04  2.5991100E-04   48.07100       2.182890    
  2.5991100E-04  2.7323700E-04   49.25877       2.357775    
  2.7323700E-04  2.8015400E-04   46.34065       3.051768    
  2.8015400E-04  2.8724599E-04   37.69550       3.442329    
  2.8724599E-04  2.9451799E-04   38.43388       3.407056    
  2.9451799E-04  3.0197401E-04   39.01274       3.521517    
  3.0197401E-04  3.0961799E-04   39.67626       3.200249    
  3.0961799E-04  3.1745600E-04   35.98069       3.438077    
  3.1745600E-04  3.3373301E-04   36.23306       2.179483    
  3.3373301E-04  3.5084400E-04   35.48053       2.264235    
  3.5084400E-04  3.6883200E-04   33.12690       2.400650    
  3.6883200E-04  3.8774201E-04   28.42943       2.143237    
  3.8774201E-04  4.0762199E-04   29.07870       2.301771    
  4.0762199E-04  4.2852099E-04   23.98551       2.508236    
  4.2852099E-04  4.5049199E-04   22.57435       2.493305    
  4.5049199E-04  4.7358900E-04   21.32212       2.467882    
  4.7358900E-04  4.9787102E-04   21.19133       2.433570    
  4.9787102E-04  5.1047403E-04   19.15471       3.231422    
  5.1047403E-04  5.2339700E-04   22.08652       3.363857    
  5.2339700E-04  5.3664698E-04   15.95355       3.325745    
  5.3664698E-04  5.5023201E-04   17.61600       3.380135    
  5.5023201E-04  5.7844300E-04   17.08587       2.286011    
  5.7844300E-04  6.0810102E-04   16.06001       3.220615    
  6.0810102E-04  6.3927902E-04   14.28281       2.307274    
  6.3927902E-04  6.7205500E-04   12.75970       2.303292    
  6.7205500E-04  7.0651202E-04   12.04459       2.521108    
  7.0651202E-04  7.4273598E-04   10.60285       2.319036    
  7.4273598E-04  7.8081700E-04   9.589506       2.342537    
  7.8081700E-04  8.2085002E-04   8.223791       2.574563    
  8.2085002E-04  8.6293602E-04   7.428813       2.408646    
  8.6293602E-04  9.0717903E-04   6.548453       2.377467    
  9.0717903E-04  9.5369201E-04   5.987769       2.360838    
  9.5369201E-04  9.6163998E-04   5.972606       5.560900    
  9.6163998E-04  9.7783399E-04   5.127780       4.003579    
  9.7783399E-04  1.0025901E-03   5.311875       3.108770    
  1.0025901E-03  1.0539900E-03   5.055649       2.472035    
  1.0539900E-03  1.1080300E-03   4.860418       2.309525    
  1.1080300E-03  1.1648400E-03   4.518258       2.164816    
  1.1648400E-03  1.1943300E-03   4.322766       3.203148    
  1.1943300E-03  1.2245600E-03   4.457889       3.236549    
  1.2245600E-03  1.2873500E-03   4.326251       2.419629    
  1.2873500E-03  1.3533500E-03   4.450485       2.321257    
  1.3533500E-03  1.4227401E-03   4.230335       2.324387    
  1.4227401E-03  1.4956900E-03   4.213205       2.472511    
  1.4956900E-03  1.5335500E-03   4.488988       3.460391    
  1.5335500E-03  1.5723699E-03   4.233527       3.483974    
  1.5723699E-03  1.6121800E-03   4.452051       3.381664    
  1.6121800E-03  1.6529900E-03   4.329724       3.172899    
  1.6529900E-03  1.7377400E-03   4.329141       2.346258    
  1.7377400E-03  1.8268300E-03   4.164239       2.363909    
  1.8268300E-03  1.8730800E-03   4.052836       2.962332    
  1.8730800E-03  1.9205000E-03   3.886044       3.390747    
  1.9205000E-03  1.9691200E-03   4.270244       3.221594    
  1.9691200E-03  2.0189700E-03   3.937460       3.289371    
  2.0189700E-03  2.1224800E-03   3.836135       2.336485    
  2.1224800E-03  2.2313001E-03   3.692061       2.418671    
  2.2313001E-03  2.2688799E-03   4.218351       4.006076    
  2.2688799E-03  2.3068599E-03   3.753276       3.785731    
  2.3068599E-03  2.3457000E-03   3.817857       3.804036    
  2.3457000E-03  2.3652499E-03   3.513329       5.893685    
  2.3652499E-03  2.3852000E-03   3.820466       5.859138    
  2.3852000E-03  2.4251300E-03   3.608028       3.777134    
  2.4251300E-03  2.4659701E-03   4.034176       4.157239    
  2.4659701E-03  2.5923999E-03   3.371622       2.244941    
  2.5923999E-03  2.7253199E-03   3.366813       2.376462    
  2.7253199E-03  2.8650500E-03   2.976220       2.446486    
  2.8650500E-03  3.0119400E-03   2.841743       2.452847    
  3.0119400E-03  3.0881900E-03   2.907812       3.404858    
  3.0881900E-03  3.1663701E-03   2.695291       3.466913    
  3.1663701E-03  3.2465300E-03   2.723166       3.561801    
  3.2465300E-03  3.3287101E-03   2.720633       3.634934    
  3.3287101E-03  3.4993801E-03   2.545725       2.564800    
  3.4993801E-03  3.6787901E-03   2.412008       2.580057    
  3.6787901E-03  3.8674099E-03   2.398288       2.303246    
  3.8674099E-03  4.0656999E-03   2.310455       2.642407    
  4.0656999E-03  4.2741499E-03   2.196380       2.544534    
  4.2741499E-03  4.4932901E-03   2.091748       2.601073    
  4.4932901E-03  4.6070400E-03   2.104811       3.446751    
  4.6070400E-03  4.7236700E-03   2.015255       3.765258    
  4.7236700E-03  4.8432499E-03   1.938768       3.373160    
  4.8432499E-03  4.9658502E-03   1.806973       3.580285    
  4.9658502E-03  5.2204598E-03   1.792912       2.667873    
  5.2204598E-03  5.4881200E-03   1.754930       2.582831    
  5.4881200E-03  5.7695000E-03   1.668629       2.576665    
  5.7695000E-03  5.9155500E-03   1.588154       3.321563    
  5.9155500E-03  6.0653100E-03   1.555012       3.774551    
  6.0653100E-03  6.2188501E-03   1.458267       3.764656    
  6.2188501E-03  6.3762800E-03   1.425075       3.820098    
  6.3762800E-03  6.5377001E-03   1.465423       3.670554    
  6.5377001E-03  6.5923799E-03   1.460859       6.080018    
  6.5923799E-03  6.6475999E-03   1.449068       5.617516    
  6.6475999E-03  6.7031998E-03   1.349683       6.365909    
  6.7031998E-03  6.8728901E-03   1.347886       3.971524    
  6.8728901E-03  7.0468802E-03   1.256168       3.682480    
  7.0468802E-03  7.2252699E-03   1.306737       3.756144    
  7.2252699E-03  7.4081798E-03   1.244541       3.597964    
  7.4081798E-03  7.5957198E-03   1.298064       3.839506    
  7.5957198E-03  7.7880099E-03   1.164252       4.020227    
  7.7880099E-03  7.9851598E-03   1.103059       3.856302    
  7.9851598E-03  8.1873098E-03   1.129733       3.498915    
  8.1873098E-03  8.3945701E-03   1.089514       3.992290    
  8.3945701E-03  8.6070802E-03   1.112516       3.718599    
  8.6070802E-03  8.8249696E-03   1.009981       3.631538    
  8.8249696E-03  9.0483697E-03   1.123656       3.779956    
  9.0483697E-03  9.2774397E-03   1.009442       3.535902    
  9.2774397E-03  9.5122904E-03  0.9412374       4.034114    
  9.5122904E-03  9.7530996E-03  0.9295154       3.793805    
  9.7530996E-03  9.9999998E-03  0.9431010       3.876323    
  9.9999998E-03  1.0253200E-02   1.032789       3.493084    
  1.0253200E-02  1.0512700E-02  0.9219360       3.751594    
  1.0512700E-02  1.0778800E-02  0.9284620       3.753686    
  1.0778800E-02  1.1051700E-02  0.9398475       3.842369    
  1.1051700E-02  1.1331500E-02  0.8601010       4.010285    
  1.1331500E-02  1.1618300E-02  0.8740358       3.888943    
  1.1618300E-02  1.1912500E-02  0.8336295       3.844330    
  1.1912500E-02  1.2214000E-02  0.8246247       4.039557    
  1.2214000E-02  1.2523200E-02  0.7356431       3.944210    
  1.2523200E-02  1.2840200E-02  0.8221954       4.031567    
  1.2840200E-02  1.3165300E-02  0.8330137       3.970151    
  1.3165300E-02  1.3498600E-02  0.7399485       3.936683    
  1.3498600E-02  1.3840300E-02  0.7419101       4.286875    
  1.3840300E-02  1.4190700E-02  0.7751313       3.485801    
  1.4190700E-02  1.4549900E-02  0.6731276       3.820579    
  1.4549900E-02  1.4918300E-02  0.6592324       3.901172    
  1.4918300E-02  1.5295900E-02  0.6913949       3.718995    
  1.5295900E-02  1.5683100E-02  0.6933265       4.028542    
  1.5683100E-02  1.6080100E-02  0.6666116       3.621007    
  1.6080100E-02  1.6487200E-02  0.6617175       3.816878    
  1.6487200E-02  1.6904600E-02  0.6294062       4.038618    
  1.6904600E-02  1.7332500E-02  0.6409158       3.656035    
  1.7332500E-02  1.7771300E-02  0.5991224       4.291353    
  1.7771300E-02  1.8221200E-02  0.5895853       4.052577    
  1.8221200E-02  1.8682500E-02  0.6270889       4.000273    
  1.8682500E-02  1.9155400E-02  0.5537094       3.860619    
  1.9155400E-02  1.9640300E-02  0.5262611       4.058418    
  1.9640300E-02  2.0000000E-02  0.5639023       4.632188    
