 # Detector n:  1  HeIInflux 
 # N. of energy intervals 260
  1.0000100E-14  2.0000000E-13  9.6487170E+10   12.48479    
  2.0000000E-13  2.9297300E-13  1.7775174E+11   10.45875    
  2.9297300E-13  4.2916701E-13  3.0551071E+11   11.11126    
  4.2916701E-13  6.2867300E-13  3.8208078E+11   5.795912    
  6.2867300E-13  9.2092198E-13  5.0336262E+11   3.437729    
  9.2092198E-13  1.3490300E-12  6.8877294E+11   3.611429    
  1.3490300E-12  1.9761499E-12  9.1957579E+11   1.701693    
  1.9761499E-12  2.8947901E-12  1.2092000E+12   2.322752    
  2.8947901E-12  4.2404799E-12  1.4696586E+12   1.671780    
  4.2404799E-12  6.2117499E-12  1.6304762E+12   1.220246    
  6.2117499E-12  9.0993801E-12  1.6356724E+12  0.8276913    
  9.0993801E-12  1.3329400E-11  1.4896227E+12  0.8113564    
  1.3329400E-11  1.9525799E-11  1.1238860E+12  0.7995079    
  1.9525799E-11  2.8602700E-11  6.6006070E+11  0.6241080    
  2.8602700E-11  4.1899099E-11  3.1118216E+11   1.004402    
  4.1899099E-11  6.1376598E-11  1.2457191E+11  0.8144823    
  6.1376598E-11  8.9908601E-11  5.2670497E+10   1.807990    
  8.9908601E-11  1.3170399E-10  2.5862861E+10   1.562964    
  1.3170399E-10  1.9292901E-10  1.4385033E+10   1.056671    
  1.9292901E-10  2.8261499E-10  8.9565092E+09  0.8753747    
  2.8261499E-10  4.1399401E-10  5.9108301E+09  0.6496042    
  4.1399401E-10  5.3157900E-10  4.2072179E+09  0.8058301    
  5.3157900E-10  6.2506200E-10  3.3931743E+09   1.138807    
  6.2506200E-10  6.8256001E-10  3.1211994E+09  0.8586379    
  6.8256001E-10  8.3368101E-10  2.5764989E+09  0.5212470    
  8.3368101E-10  8.7642499E-10  2.2525179E+09   1.393652    
  8.7642499E-10  1.1253500E-09  1.9561720E+09  0.6544693    
  1.1253500E-09  1.4449800E-09  1.5348522E+09  0.7436250    
  1.4449800E-09  1.8553900E-09  1.1746698E+09  0.6938034    
  1.8553900E-09  2.3823701E-09  9.3270150E+08  0.6013232    
  2.3823701E-09  3.0590199E-09  7.2142694E+08  0.7346417    
  3.0590199E-09  3.9278598E-09  5.5345274E+08  0.6145766    
  3.9278598E-09  5.0434799E-09  4.3175046E+08  0.7824196    
  5.0434799E-09  6.4759500E-09  3.4263821E+08  0.6388940    
  6.4759500E-09  8.3152898E-09  2.6616109E+08  0.6514209    
  8.3152898E-09  1.0677000E-08  2.0768245E+08  0.8832734    
  1.0677000E-08  1.3709600E-08  1.6003594E+08  0.7922550    
  1.3709600E-08  1.7603501E-08  1.2474726E+08  0.7162060    
  1.7603501E-08  2.2603301E-08  9.7981928E+07  0.8696252    
  2.2603301E-08  2.9023200E-08  7.5956408E+07  0.8872032    
  2.9023200E-08  3.7266499E-08  6.0027840E+07  0.7972770    
  3.7266499E-08  4.7851199E-08  4.6138988E+07  0.6322105    
  4.7851199E-08  6.1442101E-08  3.6263824E+07  0.6267617    
  6.1442101E-08  7.8893301E-08  2.7683034E+07  0.6380331    
  7.8893301E-08  1.0130100E-07  2.1975596E+07  0.6119856    
  1.0130100E-07  1.3007300E-07  1.6676213E+07  0.6878504    
  1.3007300E-07  1.6701701E-07  1.3007655E+07  0.6120659    
  1.6701701E-07  2.1445400E-07  1.0046284E+07  0.7114809    
  2.1445400E-07  2.7536399E-07   7907826.      0.5450225    
  2.7536399E-07  3.5357499E-07   6041373.      0.5155850    
  3.5357499E-07  4.5399901E-07   4642125.      0.6626195    
  4.5399901E-07  5.8294700E-07   3631730.      0.7464843    
  5.8294700E-07  7.4851800E-07   2781966.      0.6485482    
  7.4851800E-07  9.6111603E-07   2131368.      0.6160768    
  9.6111603E-07  1.2341000E-06   1649540.      0.6400463    
  1.2341000E-06  1.3638900E-06   1382452.       1.044771    
  1.3638900E-06  1.5073300E-06   1267567.       1.166630    
  1.5073300E-06  1.5846100E-06   1143849.       1.444354    
  1.5846100E-06  1.6658601E-06   1072536.       1.679206    
  1.6658601E-06  1.8410600E-06   1022326.      0.9014374    
  1.8410600E-06  2.0346799E-06   899273.5      0.9127594    
  2.0346799E-06  2.2486699E-06   820596.9       1.234399    
  2.2486699E-06  2.4851699E-06   722518.7       1.065282    
  2.4851699E-06  2.6125899E-06   687576.8       1.664069    
  2.6125899E-06  2.7465401E-06   630792.4       1.666759    
  2.7465401E-06  2.8634900E-06   604665.9       1.979740    
  2.8634900E-06  3.0353899E-06   575571.8       1.796348    
  3.0353899E-06  3.3546301E-06   535623.4       1.589484    
  3.3546301E-06  3.7074401E-06   481131.9       1.203809    
  3.7074401E-06  4.0973500E-06   422868.7       1.477755    
  4.0973500E-06  4.3074201E-06   387971.5       1.578979    
  4.3074201E-06  4.5282700E-06   372938.5       1.898951    
  4.5282700E-06  5.0045101E-06   347247.9       1.043972    
  5.0045101E-06  5.5308401E-06   327886.7       1.159493    
  5.5308401E-06  6.2672698E-06   243519.0       1.141125    
  6.2672698E-06  7.1017398E-06   237249.6      0.6559098    
  7.1017398E-06  8.0473301E-06   206268.5      0.9602231    
  8.0473301E-06  9.1188203E-06   182819.9      0.6685365    
  9.1188203E-06  1.0333000E-05   157056.3      0.7854972    
  1.0333000E-05  1.1708800E-05   136990.6       1.071662    
  1.1708800E-05  1.3267800E-05   118600.9      0.9442728    
  1.3267800E-05  1.5034400E-05   103294.9       1.593658    
  1.5034400E-05  1.7036200E-05   89969.27       1.152973    
  1.7036200E-05  1.9304500E-05   77524.49       1.026598    
  1.9304500E-05  2.1334799E-05   67840.95       1.579588    
  2.1334799E-05  2.1874899E-05   60565.21       3.096349    
  2.1874899E-05  2.3578599E-05   60718.89       1.667837    
  2.3578599E-05  2.4175501E-05   57974.23       3.015959    
  2.4175501E-05  2.4787500E-05   52444.19       2.790692    
  2.4787500E-05  2.6058400E-05   53185.87       1.933073    
  2.6058400E-05  2.8087899E-05   51688.42       1.765024    
  2.8087899E-05  3.1827800E-05   54038.18      0.8788373    
  3.1827800E-05  3.4306700E-05   37636.42       1.880155    
  3.4306700E-05  3.5175199E-05   19907.37       3.497087    
  3.5175199E-05  3.6065601E-05   17128.48       3.511692    
  3.6065601E-05  4.0867701E-05   23790.30       1.328645    
  4.0867701E-05  4.6309200E-05   25820.62       1.017215    
  4.6309200E-05  5.2475199E-05   23431.53       1.112794    
  5.2475199E-05  5.6562199E-05   20683.55       1.707156    
  5.6562199E-05  5.9462200E-05   19848.77       2.117968    
  5.9462200E-05  6.2510902E-05   17849.89       1.912676    
  6.2510902E-05  6.7379500E-05   17373.08       1.961001    
  6.7379500E-05  7.6350902E-05   16731.08       1.127477    
  7.6350902E-05  8.6516899E-05   12443.54       1.706656    
  8.6516899E-05  9.8036500E-05   7490.500       1.468399    
  9.8036500E-05  1.1109000E-04   8927.822       1.711738    
  1.1109000E-04  1.1678600E-04   8455.385       2.055472    
  1.1678600E-04  1.2277300E-04   5819.932       3.003183    
  1.2277300E-04  1.2906799E-04   8100.581       2.258873    
  1.2906799E-04  1.3568600E-04   8257.702       1.426134    
  1.3568600E-04  1.4264201E-04   6282.667       1.864241    
  1.4264201E-04  1.4995600E-04   4921.969       2.115102    
  1.4995600E-04  1.5764400E-04   4625.581       1.963815    
  1.5764400E-04  1.6163501E-04   3796.600       1.976218    
  1.6163501E-04  1.6572700E-04   4442.928       3.342203    
  1.6572700E-04  1.6992200E-04   4659.502       2.823992    
  1.6992200E-04  1.7422400E-04   4598.156       3.506328    
  1.7422400E-04  1.8315599E-04   4766.401       2.630739    
  1.8315599E-04  1.9254700E-04   4661.269       1.539412    
  1.9254700E-04  2.0241900E-04   4151.819       1.945814    
  2.0241900E-04  2.1279699E-04   3336.586       2.880465    
  2.1279699E-04  2.2370800E-04   3270.914       2.324502    
  2.2370800E-04  2.3517800E-04   3156.810       1.571411    
  2.3517800E-04  2.4723500E-04   3214.377       2.400601    
  2.4723500E-04  2.5991100E-04   3092.605       2.520918    
  2.5991100E-04  2.7323700E-04   3235.368       2.483938    
  2.7323700E-04  2.8015400E-04   2689.558       3.879271    
  2.8015400E-04  2.8724599E-04   2328.707       2.788373    
  2.8724599E-04  2.9451799E-04   2385.239       4.692217    
  2.9451799E-04  3.0197401E-04   2312.769       3.765722    
  3.0197401E-04  3.0961799E-04   2344.902       3.053967    
  3.0961799E-04  3.1745600E-04   2007.662       2.489217    
  3.1745600E-04  3.3373301E-04   2053.768       3.416147    
  3.3373301E-04  3.5084400E-04   2166.308       2.195049    
  3.5084400E-04  3.6883200E-04   1695.710       2.281830    
  3.6883200E-04  3.8774201E-04   1634.135       1.680670    
  3.8774201E-04  4.0762199E-04   1640.750       2.474432    
  4.0762199E-04  4.2852099E-04   1344.757       3.364215    
  4.2852099E-04  4.5049199E-04   1178.873       2.620257    
  4.5049199E-04  4.7358900E-04   1243.936       2.766284    
  4.7358900E-04  4.9787102E-04   1127.663       3.055052    
  4.9787102E-04  5.1047403E-04   1061.545       3.659297    
  5.1047403E-04  5.2339700E-04   1048.224       2.567905    
  5.2339700E-04  5.3664698E-04   848.4349       4.252645    
  5.3664698E-04  5.5023201E-04   981.2302       4.371416    
  5.5023201E-04  5.7844300E-04   851.9274       2.685602    
  5.7844300E-04  6.0810102E-04   805.0601       3.084190    
  6.0810102E-04  6.3927902E-04   717.6708       2.975852    
  6.3927902E-04  6.7205500E-04   594.3911       2.565738    
  6.7205500E-04  7.0651202E-04   599.6581       3.472162    
  7.0651202E-04  7.4273598E-04   489.8637       2.278232    
  7.4273598E-04  7.8081700E-04   450.2124       3.377516    
  7.8081700E-04  8.2085002E-04   324.7453       4.320569    
  8.2085002E-04  8.6293602E-04   304.6781       2.689558    
  8.6293602E-04  9.0717903E-04   282.3615       3.539016    
  9.0717903E-04  9.5369201E-04   262.6443       2.152692    
  9.5369201E-04  9.6163998E-04   193.4962       7.911602    
  9.6163998E-04  9.7783399E-04   219.8241       4.576897    
  9.7783399E-04  1.0025901E-03   215.5730       6.167751    
  1.0025901E-03  1.0539900E-03   198.5627       2.922847    
  1.0539900E-03  1.1080300E-03   187.8466       4.117167    
  1.1080300E-03  1.1648400E-03   169.8963       2.939347    
  1.1648400E-03  1.1943300E-03   164.4780       5.050335    
  1.1943300E-03  1.2245600E-03   173.0224       4.250306    
  1.2245600E-03  1.2873500E-03   165.7583       3.161392    
  1.2873500E-03  1.3533500E-03   154.7804       2.359192    
  1.3533500E-03  1.4227401E-03   154.9309       2.754195    
  1.4227401E-03  1.4956900E-03   145.4041       4.303710    
  1.4956900E-03  1.5335500E-03   149.9906       4.868284    
  1.5335500E-03  1.5723699E-03   140.4686       4.837732    
  1.5723699E-03  1.6121800E-03   127.8597       5.497206    
  1.6121800E-03  1.6529900E-03   126.7857       7.417490    
  1.6529900E-03  1.7377400E-03   119.6661       4.831478    
  1.7377400E-03  1.8268300E-03   114.9582       4.957211    
  1.8268300E-03  1.8730800E-03   116.8217       4.982584    
  1.8730800E-03  1.9205000E-03   114.0993       4.648956    
  1.9205000E-03  1.9691200E-03   108.6763       6.478905    
  1.9691200E-03  2.0189700E-03   95.20728       7.164825    
  2.0189700E-03  2.1224800E-03   92.27747       4.835188    
  2.1224800E-03  2.2313001E-03   86.12559       5.413989    
  2.2313001E-03  2.2688799E-03   86.22771       4.997701    
  2.2688799E-03  2.3068599E-03   80.21890       6.956629    
  2.3068599E-03  2.3457000E-03   84.31451       8.937483    
  2.3457000E-03  2.3652499E-03   97.06834       7.148072    
  2.3652499E-03  2.3852000E-03   84.88400       8.836715    
  2.3852000E-03  2.4251300E-03   87.36164       6.448736    
  2.4251300E-03  2.4659701E-03   71.05824       8.611922    
  2.4659701E-03  2.5923999E-03   65.37460       4.177120    
  2.5923999E-03  2.7253199E-03   59.63231       6.153012    
  2.7253199E-03  2.8650500E-03   54.43391       5.652095    
  2.8650500E-03  3.0119400E-03   45.59585       4.136004    
  3.0119400E-03  3.0881900E-03   49.93193       7.017988    
  3.0881900E-03  3.1663701E-03   43.28498       7.769783    
  3.1663701E-03  3.2465300E-03   41.30679       6.087394    
  3.2465300E-03  3.3287101E-03   41.30956       6.341530    
  3.3287101E-03  3.4993801E-03   39.50837       3.748537    
  3.4993801E-03  3.6787901E-03   34.56403       7.328096    
  3.6787901E-03  3.8674099E-03   31.55987       4.736103    
  3.8674099E-03  4.0656999E-03   32.82179       4.805814    
  4.0656999E-03  4.2741499E-03   27.76647       6.597025    
  4.2741499E-03  4.4932901E-03   28.19375       6.050652    
  4.4932901E-03  4.6070400E-03   25.19145       7.410323    
  4.6070400E-03  4.7236700E-03   23.07152       7.351592    
  4.7236700E-03  4.8432499E-03   20.56462       7.550465    
  4.8432499E-03  4.9658502E-03   21.27933       8.068989    
  4.9658502E-03  5.2204598E-03   19.61573       5.110003    
  5.2204598E-03  5.4881200E-03   19.90630       2.898909    
  5.4881200E-03  5.7695000E-03   19.51843       6.008769    
  5.7695000E-03  5.9155500E-03   16.32692       11.19993    
  5.9155500E-03  6.0653100E-03   18.24276       8.196236    
  6.0653100E-03  6.2188501E-03   15.43308       9.208063    
  6.2188501E-03  6.3762800E-03   14.13815       10.79792    
  6.3762800E-03  6.5377001E-03   15.22999       7.301036    
  6.5377001E-03  6.5923799E-03   17.19704       14.99300    
  6.5923799E-03  6.6475999E-03   18.30182       13.09874    
  6.6475999E-03  6.7031998E-03   10.63061       16.20595    
  6.7031998E-03  6.8728901E-03   13.43217       10.74402    
  6.8728901E-03  7.0468802E-03   13.98992       6.502732    
  7.0468802E-03  7.2252699E-03   14.31302       8.048708    
  7.2252699E-03  7.4081798E-03   13.66767       5.337064    
  7.4081798E-03  7.5957198E-03   9.974470       11.45159    
  7.5957198E-03  7.7880099E-03   11.55234       8.083397    
  7.7880099E-03  7.9851598E-03   10.62564       10.39256    
  7.9851598E-03  8.1873098E-03   10.06412       8.999635    
  8.1873098E-03  8.3945701E-03   10.20698       9.747207    
  8.3945701E-03  8.6070802E-03   10.98909       10.14750    
  8.6070802E-03  8.8249696E-03   10.68538       7.760803    
  8.8249696E-03  9.0483697E-03   9.325217       6.469188    
  9.0483697E-03  9.2774397E-03   8.716654       8.023474    
  9.2774397E-03  9.5122904E-03   8.698045       9.015844    
  9.5122904E-03  9.7530996E-03   8.975525       10.49828    
  9.7530996E-03  9.9999998E-03   8.134241       10.89671    
  9.9999998E-03  1.0253200E-02   9.324208       9.979585    
  1.0253200E-02  1.0512700E-02   8.371325       7.958755    
  1.0512700E-02  1.0778800E-02   7.781461       9.731769    
  1.0778800E-02  1.1051700E-02   6.615194       10.87040    
  1.1051700E-02  1.1331500E-02   7.278299       9.526735    
  1.1331500E-02  1.1618300E-02   7.016551       11.94499    
  1.1618300E-02  1.1912500E-02   7.522400       10.20852    
  1.1912500E-02  1.2214000E-02   6.269364       10.14381    
  1.2214000E-02  1.2523200E-02   6.395437       7.807174    
  1.2523200E-02  1.2840200E-02   5.857994       9.910701    
  1.2840200E-02  1.3165300E-02   6.126334       8.461787    
  1.3165300E-02  1.3498600E-02   6.123641       10.59797    
  1.3498600E-02  1.3840300E-02   5.132049       9.850052    
  1.3840300E-02  1.4190700E-02   5.021414       13.39510    
  1.4190700E-02  1.4549900E-02   5.128325       8.004554    
  1.4549900E-02  1.4918300E-02   6.009961       9.514442    
  1.4918300E-02  1.5295900E-02   5.013174       9.839937    
  1.5295900E-02  1.5683100E-02   3.911345       16.24201    
  1.5683100E-02  1.6080100E-02   4.158669       7.574560    
  1.6080100E-02  1.6487200E-02   4.713059       11.40107    
  1.6487200E-02  1.6904600E-02   4.630508       9.646722    
  1.6904600E-02  1.7332500E-02   3.896719       13.71830    
  1.7332500E-02  1.7771300E-02   4.111065       8.650026    
  1.7771300E-02  1.8221200E-02   3.469040       13.26878    
  1.8221200E-02  1.8682500E-02   4.097414       9.992911    
  1.8682500E-02  1.9155400E-02   3.363688       11.64039    
  1.9155400E-02  1.9640300E-02   2.657273       12.29363    
  1.9640300E-02  2.0000000E-02   3.899137       12.64272    
