 # Detector n:  1  HeIInflux 
 # N. of energy intervals 260
  1.0000100E-14  2.0000000E-13  2.3435495E+10   13.68841    
  2.0000000E-13  2.9297300E-13  5.4820151E+10   12.33001    
  2.9297300E-13  4.2916701E-13  9.5095718E+10   12.64703    
  4.2916701E-13  6.2867300E-13  1.4328231E+11   8.681383    
  6.2867300E-13  9.2092198E-13  2.0188786E+11   5.461870    
  9.2092198E-13  1.3490300E-12  2.7788663E+11   5.210173    
  1.3490300E-12  1.9761499E-12  3.7635077E+11   2.891044    
  1.9761499E-12  2.8947901E-12  4.7154777E+11   2.066832    
  2.8947901E-12  4.2404799E-12  5.6616118E+11   1.915365    
  4.2404799E-12  6.2117499E-12  6.5190042E+11   1.679947    
  6.2117499E-12  9.0993801E-12  6.7533917E+11   1.296993    
  9.0993801E-12  1.3329400E-11  6.1904801E+11  0.7696161    
  1.3329400E-11  1.9525799E-11  4.6976775E+11  0.9492576    
  1.9525799E-11  2.8602700E-11  2.8813305E+11   1.241778    
  2.8602700E-11  4.1899099E-11  1.3435495E+11  0.8396985    
  4.1899099E-11  6.1376598E-11  5.6165261E+10   1.783487    
  6.1376598E-11  8.9908601E-11  2.5219478E+10   1.883765    
  8.9908601E-11  1.3170399E-10  1.2974918E+10  0.9347458    
  1.3170399E-10  1.9292901E-10  7.4393661E+09  0.7267599    
  1.9292901E-10  2.8261499E-10  4.7119073E+09  0.7620181    
  2.8261499E-10  4.1399401E-10  3.1499564E+09  0.9368345    
  4.1399401E-10  5.3157900E-10  2.2852744E+09  0.9426731    
  5.3157900E-10  6.2506200E-10  1.8957851E+09   1.401075    
  6.2506200E-10  6.8256001E-10  1.6436979E+09   1.786429    
  6.8256001E-10  8.3368101E-10  1.4117789E+09   1.078244    
  8.3368101E-10  8.7642499E-10  1.2383415E+09   2.670924    
  8.7642499E-10  1.1253500E-09  1.0764607E+09  0.7235035    
  1.1253500E-09  1.4449800E-09  8.3259066E+08   1.092045    
  1.4449800E-09  1.8553900E-09  6.4717875E+08  0.6987687    
  1.8553900E-09  2.3823701E-09  5.0977766E+08  0.8546687    
  2.3823701E-09  3.0590199E-09  4.0144237E+08  0.7829829    
  3.0590199E-09  3.9278598E-09  3.0618893E+08   1.013328    
  3.9278598E-09  5.0434799E-09  2.3877947E+08  0.8397477    
  5.0434799E-09  6.4759500E-09  1.8578674E+08  0.7806756    
  6.4759500E-09  8.3152898E-09  1.4664386E+08   1.041963    
  8.3152898E-09  1.0677000E-08  1.1444870E+08  0.5428033    
  1.0677000E-08  1.3709600E-08  8.7966336E+07  0.5716535    
  1.3709600E-08  1.7603501E-08  7.0506928E+07  0.6603664    
  1.7603501E-08  2.2603301E-08  5.3953396E+07  0.5899347    
  2.2603301E-08  2.9023200E-08  4.3349380E+07  0.7032465    
  2.9023200E-08  3.7266499E-08  3.3992016E+07  0.8733262    
  3.7266499E-08  4.7851199E-08  2.5633608E+07  0.6577761    
  4.7851199E-08  6.1442101E-08  2.0344942E+07  0.7163488    
  6.1442101E-08  7.8893301E-08  1.5621849E+07  0.7658259    
  7.8893301E-08  1.0130100E-07  1.2259045E+07  0.9692909    
  1.0130100E-07  1.3007300E-07   9641245.      0.8785582    
  1.3007300E-07  1.6701701E-07   7470662.      0.9398106    
  1.6701701E-07  2.1445400E-07   5845157.      0.6113228    
  2.1445400E-07  2.7536399E-07   4430878.       1.141348    
  2.7536399E-07  3.5357499E-07   3462360.      0.6543449    
  3.5357499E-07  4.5399901E-07   2665622.      0.8799837    
  4.5399901E-07  5.8294700E-07   2047406.      0.9076746    
  5.8294700E-07  7.4851800E-07   1613460.      0.7915722    
  7.4851800E-07  9.6111603E-07   1223185.      0.8819264    
  9.6111603E-07  1.2341000E-06   955760.2      0.7763289    
  1.2341000E-06  1.3638900E-06   792777.6       1.435713    
  1.3638900E-06  1.5073300E-06   712734.9       1.171036    
  1.5073300E-06  1.5846100E-06   643743.9       1.101149    
  1.5846100E-06  1.6658601E-06   637977.5       1.977448    
  1.6658601E-06  1.8410600E-06   576881.8      0.8836026    
  1.8410600E-06  2.0346799E-06   522061.7      0.8477877    
  2.0346799E-06  2.2486699E-06   470210.3       1.529101    
  2.2486699E-06  2.4851699E-06   419884.3       1.179443    
  2.4851699E-06  2.6125899E-06   384717.8       1.683450    
  2.6125899E-06  2.7465401E-06   358060.5       2.279766    
  2.7465401E-06  2.8634900E-06   349698.8       2.523828    
  2.8634900E-06  3.0353899E-06   321162.0       1.448224    
  3.0353899E-06  3.3546301E-06   304416.2       1.205030    
  3.3546301E-06  3.7074401E-06   276791.7       1.658982    
  3.7074401E-06  4.0973500E-06   241768.7       1.237505    
  4.0973500E-06  4.3074201E-06   222988.0       2.242605    
  4.3074201E-06  4.5282700E-06   215380.1       2.432704    
  4.5282700E-06  5.0045101E-06   196912.2       1.460003    
  5.0045101E-06  5.5308401E-06   191152.5       1.416273    
  5.5308401E-06  6.2672698E-06   138511.1       1.322884    
  6.2672698E-06  7.1017398E-06   134553.3       1.258790    
  7.1017398E-06  8.0473301E-06   117920.9       1.283146    
  8.0473301E-06  9.1188203E-06   103958.8       1.464723    
  9.1188203E-06  1.0333000E-05   91289.93       1.260056    
  1.0333000E-05  1.1708800E-05   77280.45       1.093201    
  1.1708800E-05  1.3267800E-05   68268.84      0.8059357    
  1.3267800E-05  1.5034400E-05   59612.38       1.138773    
  1.5034400E-05  1.7036200E-05   52225.89       1.049927    
  1.7036200E-05  1.9304500E-05   43262.00       1.541254    
  1.9304500E-05  2.1334799E-05   39172.91       1.408704    
  2.1334799E-05  2.1874899E-05   35888.00       2.695585    
  2.1874899E-05  2.3578599E-05   34328.00       1.181819    
  2.3578599E-05  2.4175501E-05   30312.06       2.612858    
  2.4175501E-05  2.4787500E-05   30603.38       3.287761    
  2.4787500E-05  2.6058400E-05   29941.33       2.196579    
  2.6058400E-05  2.8087899E-05   29965.11       1.476300    
  2.8087899E-05  3.1827800E-05   31410.64      0.9369466    
  3.1827800E-05  3.4306700E-05   20758.16       1.806272    
  3.4306700E-05  3.5175199E-05   11055.19       3.861641    
  3.5175199E-05  3.6065601E-05   9244.973       5.553594    
  3.6065601E-05  4.0867701E-05   12851.04       2.455938    
  4.0867701E-05  4.6309200E-05   14143.78       1.104210    
  4.6309200E-05  5.2475199E-05   13222.90       1.466894    
  5.2475199E-05  5.6562199E-05   11608.74       1.782212    
  5.6562199E-05  5.9462200E-05   10707.97       2.789107    
  5.9462200E-05  6.2510902E-05   10114.31       2.677720    
  6.2510902E-05  6.7379500E-05   9514.587       1.828007    
  6.7379500E-05  7.6350902E-05   9854.035       1.073010    
  7.6350902E-05  8.6516899E-05   7025.322       1.533321    
  8.6516899E-05  9.8036500E-05   4094.732       1.742489    
  9.8036500E-05  1.1109000E-04   4802.245       1.507380    
  1.1109000E-04  1.1678600E-04   4852.758       2.429147    
  1.1678600E-04  1.2277300E-04   3294.300       2.367978    
  1.2277300E-04  1.2906799E-04   4706.167       2.109148    
  1.2906799E-04  1.3568600E-04   4771.625       2.962462    
  1.3568600E-04  1.4264201E-04   3494.095       3.170159    
  1.4264201E-04  1.4995600E-04   2661.998       3.438276    
  1.4995600E-04  1.5764400E-04   2445.583       3.267665    
  1.5764400E-04  1.6163501E-04   1878.937       5.297985    
  1.6163501E-04  1.6572700E-04   2436.885       3.815251    
  1.6572700E-04  1.6992200E-04   2295.382       2.960840    
  1.6992200E-04  1.7422400E-04   2648.301       3.774513    
  1.7422400E-04  1.8315599E-04   2570.674       2.588711    
  1.8315599E-04  1.9254700E-04   2487.044       2.494399    
  1.9254700E-04  2.0241900E-04   2272.079       2.961777    
  2.0241900E-04  2.1279699E-04   1749.168       3.076152    
  2.1279699E-04  2.2370800E-04   1796.733       2.343779    
  2.2370800E-04  2.3517800E-04   1813.666       3.451730    
  2.3517800E-04  2.4723500E-04   1744.135       2.490310    
  2.4723500E-04  2.5991100E-04   1621.627       2.427436    
  2.5991100E-04  2.7323700E-04   1768.076       1.667243    
  2.7323700E-04  2.8015400E-04   1679.151       3.589782    
  2.8015400E-04  2.8724599E-04   1240.331       3.705256    
  2.8724599E-04  2.9451799E-04   1155.366       2.580812    
  2.9451799E-04  3.0197401E-04   1242.532       4.461000    
  3.0197401E-04  3.0961799E-04   1196.974       4.353832    
  3.0961799E-04  3.1745600E-04   1025.008       4.651337    
  3.1745600E-04  3.3373301E-04   1119.932       2.060359    
  3.3373301E-04  3.5084400E-04   1198.400       2.586765    
  3.5084400E-04  3.6883200E-04   965.2902       2.359105    
  3.6883200E-04  3.8774201E-04   962.8356       2.991545    
  3.8774201E-04  4.0762199E-04   912.6655       3.356661    
  4.0762199E-04  4.2852099E-04   777.0465       3.918739    
  4.2852099E-04  4.5049199E-04   666.5934       1.619551    
  4.5049199E-04  4.7358900E-04   661.0742       3.554269    
  4.7358900E-04  4.9787102E-04   646.8529       2.487247    
  4.9787102E-04  5.1047403E-04   626.1573       4.431423    
  5.1047403E-04  5.2339700E-04   637.5532       2.553939    
  5.2339700E-04  5.3664698E-04   508.1913       4.660825    
  5.3664698E-04  5.5023201E-04   549.8164       3.768265    
  5.5023201E-04  5.7844300E-04   488.4939       4.361125    
  5.7844300E-04  6.0810102E-04   441.8340       3.368532    
  6.0810102E-04  6.3927902E-04   400.9382       3.608441    
  6.3927902E-04  6.7205500E-04   343.6677       2.734324    
  6.7205500E-04  7.0651202E-04   354.0836       2.413462    
  7.0651202E-04  7.4273598E-04   314.2842       4.337598    
  7.4273598E-04  7.8081700E-04   274.4512       3.133650    
  7.8081700E-04  8.2085002E-04   214.3660       4.377590    
  8.2085002E-04  8.6293602E-04   194.2533       4.328224    
  8.6293602E-04  9.0717903E-04   190.2768       3.027684    
  9.0717903E-04  9.5369201E-04   174.3317       4.741665    
  9.5369201E-04  9.6163998E-04   157.4212       9.793336    
  9.6163998E-04  9.7783399E-04   148.3710       5.329866    
  9.7783399E-04  1.0025901E-03   146.6493       4.710775    
  1.0025901E-03  1.0539900E-03   132.9945       4.598944    
  1.0539900E-03  1.1080300E-03   135.7321       4.704369    
  1.1080300E-03  1.1648400E-03   115.3000       3.382521    
  1.1648400E-03  1.1943300E-03   96.59483       5.617084    
  1.1943300E-03  1.2245600E-03   107.0844       4.683823    
  1.2245600E-03  1.2873500E-03   101.7894       3.258345    
  1.2873500E-03  1.3533500E-03   98.01748       4.660808    
  1.3533500E-03  1.4227401E-03   95.68330       3.300358    
  1.4227401E-03  1.4956900E-03   91.67279       5.480362    
  1.4956900E-03  1.5335500E-03   85.83519       5.322919    
  1.5335500E-03  1.5723699E-03   85.96152       7.446825    
  1.5723699E-03  1.6121800E-03   79.50946       6.209652    
  1.6121800E-03  1.6529900E-03   85.26488       4.895693    
  1.6529900E-03  1.7377400E-03   77.65281       4.476625    
  1.7377400E-03  1.8268300E-03   69.50089       4.312242    
  1.8268300E-03  1.8730800E-03   73.74067       4.736691    
  1.8730800E-03  1.9205000E-03   63.84106       6.030385    
  1.9205000E-03  1.9691200E-03   62.90250       7.133321    
  1.9691200E-03  2.0189700E-03   58.61573       6.223932    
  2.0189700E-03  2.1224800E-03   56.34646       4.447945    
  2.1224800E-03  2.2313001E-03   51.71448       3.174922    
  2.2313001E-03  2.2688799E-03   50.45920       9.310107    
  2.2688799E-03  2.3068599E-03   45.29460       8.376338    
  2.3068599E-03  2.3457000E-03   46.79598       10.32831    
  2.3457000E-03  2.3652499E-03   43.81531       11.91549    
  2.3652499E-03  2.3852000E-03   50.02417       10.88893    
  2.3852000E-03  2.4251300E-03   50.07355       6.781206    
  2.4251300E-03  2.4659701E-03   42.40076       10.24850    
  2.4659701E-03  2.5923999E-03   35.80408       6.729804    
  2.5923999E-03  2.7253199E-03   33.46384       3.797810    
  2.7253199E-03  2.8650500E-03   30.32245       7.222389    
  2.8650500E-03  3.0119400E-03   26.24172       4.455558    
  3.0119400E-03  3.0881900E-03   25.39480       8.175254    
  3.0881900E-03  3.1663701E-03   22.56425       7.194838    
  3.1663701E-03  3.2465300E-03   23.37966       9.391087    
  3.2465300E-03  3.3287101E-03   23.86842       11.07199    
  3.3287101E-03  3.4993801E-03   21.49055       5.739666    
  3.4993801E-03  3.6787901E-03   19.28079       9.579383    
  3.6787901E-03  3.8674099E-03   18.41403       6.924181    
  3.8674099E-03  4.0656999E-03   18.77641       6.892342    
  4.0656999E-03  4.2741499E-03   16.12576       8.022707    
  4.2741499E-03  4.4932901E-03   14.96313       6.762742    
  4.4932901E-03  4.6070400E-03   14.63165       9.598344    
  4.6070400E-03  4.7236700E-03   11.62888       9.464245    
  4.7236700E-03  4.8432499E-03   13.22173       6.707567    
  4.8432499E-03  4.9658502E-03   13.94841       9.190990    
  4.9658502E-03  5.2204598E-03   11.53439       5.333300    
  5.2204598E-03  5.4881200E-03   9.470750       6.720791    
  5.4881200E-03  5.7695000E-03   10.17482       5.251302    
  5.7695000E-03  5.9155500E-03   9.254015       10.90017    
  5.9155500E-03  6.0653100E-03   8.389559       9.357088    
  6.0653100E-03  6.2188501E-03   8.728056       9.226337    
  6.2188501E-03  6.3762800E-03   9.391749       7.343906    
  6.3762800E-03  6.5377001E-03   7.502894       6.484742    
  6.5377001E-03  6.5923799E-03   7.125922       24.86569    
  6.5923799E-03  6.6475999E-03   8.202462       15.95941    
  6.6475999E-03  6.7031998E-03   9.739731       17.95927    
  6.7031998E-03  6.8728901E-03   6.497216       17.79646    
  6.8728901E-03  7.0468802E-03   6.804713       8.131050    
  7.0468802E-03  7.2252699E-03   7.654121       12.26669    
  7.2252699E-03  7.4081798E-03   8.069675       7.202389    
  7.4081798E-03  7.5957198E-03   6.571306       10.17548    
  7.5957198E-03  7.7880099E-03   6.838172       8.959366    
  7.7880099E-03  7.9851598E-03   7.136904       9.885311    
  7.9851598E-03  8.1873098E-03   5.514096       11.99334    
  8.1873098E-03  8.3945701E-03   6.710579       6.160884    
  8.3945701E-03  8.6070802E-03   5.314846       13.48107    
  8.6070802E-03  8.8249696E-03   4.026062       12.45527    
  8.8249696E-03  9.0483697E-03   4.738665       15.68446    
  9.0483697E-03  9.2774397E-03   4.749088       12.61559    
  9.2774397E-03  9.5122904E-03   5.080293       11.55880    
  9.5122904E-03  9.7530996E-03   4.819830       9.809956    
  9.7530996E-03  9.9999998E-03   5.570820       5.827628    
  9.9999998E-03  1.0253200E-02   4.073947       15.27659    
  1.0253200E-02  1.0512700E-02   4.005890       13.69477    
  1.0512700E-02  1.0778800E-02   3.669404       12.59229    
  1.0778800E-02  1.1051700E-02   3.807575       10.32196    
  1.1051700E-02  1.1331500E-02   3.895844       11.53378    
  1.1331500E-02  1.1618300E-02   3.471329       7.118723    
  1.1618300E-02  1.1912500E-02   3.206313       9.399748    
  1.1912500E-02  1.2214000E-02   3.517105       7.282691    
  1.2214000E-02  1.2523200E-02   3.105342       11.05209    
  1.2523200E-02  1.2840200E-02   3.509318       11.36590    
  1.2840200E-02  1.3165300E-02   3.445266       12.97938    
  1.3165300E-02  1.3498600E-02   2.911308       14.06831    
  1.3498600E-02  1.3840300E-02   2.918279       12.29740    
  1.3840300E-02  1.4190700E-02   2.673629       11.81447    
  1.4190700E-02  1.4549900E-02   2.599097       11.34225    
  1.4549900E-02  1.4918300E-02   2.315719       11.59968    
  1.4918300E-02  1.5295900E-02   2.684385       14.45082    
  1.5295900E-02  1.5683100E-02   2.204819       10.07421    
  1.5683100E-02  1.6080100E-02   2.525101       11.43995    
  1.6080100E-02  1.6487200E-02   2.378689       11.81404    
  1.6487200E-02  1.6904600E-02   1.802748       14.76418    
  1.6904600E-02  1.7332500E-02   2.270470       9.125575    
  1.7332500E-02  1.7771300E-02   2.273052       12.48914    
  1.7771300E-02  1.8221200E-02   2.130227       12.92242    
  1.8221200E-02  1.8682500E-02   1.813052       8.971510    
  1.8682500E-02  1.9155400E-02   1.557843       13.31018    
  1.9155400E-02  1.9640300E-02   1.855710       9.648168    
  1.9640300E-02  2.0000000E-02   1.967953       12.27141    
