 # Detector n:  1  HeIInflux 
 # N. of energy intervals 260
  1.0000100E-14  2.0000000E-13  7.5193819E+10   18.10731    
  2.0000000E-13  2.9297300E-13  1.9710324E+11   13.54342    
  2.9297300E-13  4.2916701E-13  2.3788785E+11   9.728125    
  4.2916701E-13  6.2867300E-13  3.6102865E+11   7.936037    
  6.2867300E-13  9.2092198E-13  5.6977909E+11   4.992271    
  9.2092198E-13  1.3490300E-12  7.0738838E+11   2.797791    
  1.3490300E-12  1.9761499E-12  9.3830034E+11   3.793264    
  1.9761499E-12  2.8947901E-12  1.1602316E+12   1.758954    
  2.8947901E-12  4.2404799E-12  1.4196733E+12  0.8751466    
  4.2404799E-12  6.2117499E-12  1.5684981E+12   1.316991    
  6.2117499E-12  9.0993801E-12  1.5664134E+12   1.038832    
  9.0993801E-12  1.3329400E-11  1.4187182E+12  0.8433926    
  1.3329400E-11  1.9525799E-11  1.0580764E+12   1.099975    
  1.9525799E-11  2.8602700E-11  6.3059001E+11  0.7565069    
  2.8602700E-11  4.1899099E-11  2.9433889E+11   1.109061    
  4.1899099E-11  6.1376598E-11  1.1529308E+11  0.8483970    
  6.1376598E-11  8.9908601E-11  4.9294696E+10   1.255313    
  8.9908601E-11  1.3170399E-10  2.3847266E+10  0.9803247    
  1.3170399E-10  1.9292901E-10  1.3494226E+10  0.8103576    
  1.9292901E-10  2.8261499E-10  8.3601823E+09  0.8163225    
  2.8261499E-10  4.1399401E-10  5.4038508E+09  0.4069783    
  4.1399401E-10  5.3157900E-10  3.9335002E+09   1.118124    
  5.3157900E-10  6.2506200E-10  3.1887928E+09  0.9754217    
  6.2506200E-10  6.8256001E-10  2.8386872E+09   1.156754    
  6.8256001E-10  8.3368101E-10  2.4321060E+09  0.6546684    
  8.3368101E-10  8.7642499E-10  2.1328577E+09   1.967260    
  8.7642499E-10  1.1253500E-09  1.8132585E+09  0.8138080    
  1.1253500E-09  1.4449800E-09  1.4173874E+09  0.6385030    
  1.4449800E-09  1.8553900E-09  1.0921304E+09  0.5505995    
  1.8553900E-09  2.3823701E-09  8.5366880E+08  0.6441565    
  2.3823701E-09  3.0590199E-09  6.7565594E+08  0.5764518    
  3.0590199E-09  3.9278598E-09  5.1359136E+08  0.6051834    
  3.9278598E-09  5.0434799E-09  4.0397446E+08  0.8972990    
  5.0434799E-09  6.4759500E-09  3.1240678E+08  0.6697454    
  6.4759500E-09  8.3152898E-09  2.4461883E+08  0.6455146    
  8.3152898E-09  1.0677000E-08  1.9054720E+08  0.4906046    
  1.0677000E-08  1.3709600E-08  1.4744216E+08  0.6735095    
  1.3709600E-08  1.7603501E-08  1.1511285E+08  0.6946430    
  1.7603501E-08  2.2603301E-08  8.9090408E+07  0.8201317    
  2.2603301E-08  2.9023200E-08  6.9602312E+07   1.040431    
  2.9023200E-08  3.7266499E-08  5.4256708E+07  0.7497857    
  3.7266499E-08  4.7851199E-08  4.2800696E+07  0.8737872    
  4.7851199E-08  6.1442101E-08  3.3231490E+07  0.7841308    
  6.1442101E-08  7.8893301E-08  2.5511148E+07  0.7611218    
  7.8893301E-08  1.0130100E-07  1.9866786E+07  0.8582609    
  1.0130100E-07  1.3007300E-07  1.5112851E+07  0.6037500    
  1.3007300E-07  1.6701701E-07  1.1935028E+07  0.6344166    
  1.6701701E-07  2.1445400E-07   9080716.      0.9237842    
  2.1445400E-07  2.7536399E-07   7090375.      0.8200759    
  2.7536399E-07  3.5357499E-07   5510370.      0.7702666    
  3.5357499E-07  4.5399901E-07   4253163.      0.4535896    
  4.5399901E-07  5.8294700E-07   3252969.      0.8863918    
  5.8294700E-07  7.4851800E-07   2543604.      0.4346314    
  7.4851800E-07  9.6111603E-07   1914891.      0.7705640    
  9.6111603E-07  1.2341000E-06   1485893.      0.6227489    
  1.2341000E-06  1.3638900E-06   1245491.       1.287178    
  1.3638900E-06  1.5073300E-06   1114183.      0.9130062    
  1.5073300E-06  1.5846100E-06   1024804.       1.606268    
  1.5846100E-06  1.6658601E-06   958638.2       1.787895    
  1.6658601E-06  1.8410600E-06   887949.8       1.198061    
  1.8410600E-06  2.0346799E-06   799029.2       1.302249    
  2.0346799E-06  2.2486699E-06   733778.9      0.8396251    
  2.2486699E-06  2.4851699E-06   643265.9       1.479688    
  2.4851699E-06  2.6125899E-06   606735.3       1.181278    
  2.6125899E-06  2.7465401E-06   563190.8       1.845146    
  2.7465401E-06  2.8634900E-06   540041.5       2.029460    
  2.8634900E-06  3.0353899E-06   513784.9       1.219476    
  3.0353899E-06  3.3546301E-06   467209.3       1.349194    
  3.3546301E-06  3.7074401E-06   417946.3       1.351197    
  3.7074401E-06  4.0973500E-06   388090.2       1.122120    
  4.0973500E-06  4.3074201E-06   344483.8       1.510115    
  4.3074201E-06  4.5282700E-06   324549.4       1.502540    
  4.5282700E-06  5.0045101E-06   305023.3       1.063056    
  5.0045101E-06  5.5308401E-06   296771.9       1.584846    
  5.5308401E-06  6.2672698E-06   218523.7       1.340832    
  6.2672698E-06  7.1017398E-06   214063.3       1.245843    
  7.1017398E-06  8.0473301E-06   186149.2       1.689286    
  8.0473301E-06  9.1188203E-06   159897.7       1.191828    
  9.1188203E-06  1.0333000E-05   138348.2       1.456439    
  1.0333000E-05  1.1708800E-05   121674.2       1.385148    
  1.1708800E-05  1.3267800E-05   105453.7       1.330177    
  1.3267800E-05  1.5034400E-05   90761.47       1.311599    
  1.5034400E-05  1.7036200E-05   79399.30      0.9882554    
  1.7036200E-05  1.9304500E-05   69574.57       1.267846    
  1.9304500E-05  2.1334799E-05   61639.31       1.129235    
  2.1334799E-05  2.1874899E-05   55657.67       2.656044    
  2.1874899E-05  2.3578599E-05   53084.77       1.581465    
  2.3578599E-05  2.4175501E-05   50316.03       2.188051    
  2.4175501E-05  2.4787500E-05   50198.48       3.754981    
  2.4787500E-05  2.6058400E-05   47037.17       1.436243    
  2.6058400E-05  2.8087899E-05   44135.45       1.812191    
  2.8087899E-05  3.1827800E-05   47872.89      0.9840121    
  3.1827800E-05  3.4306700E-05   31423.16       1.576658    
  3.4306700E-05  3.5175199E-05   16286.15       4.476947    
  3.5175199E-05  3.6065601E-05   17130.19       5.116066    
  3.6065601E-05  4.0867701E-05   20713.16       1.914987    
  4.0867701E-05  4.6309200E-05   22745.57       1.190098    
  4.6309200E-05  5.2475199E-05   20181.34       1.666400    
  5.2475199E-05  5.6562199E-05   18448.97       1.701495    
  5.6562199E-05  5.9462200E-05   16709.97       2.669683    
  5.9462200E-05  6.2510902E-05   16439.04       2.319425    
  6.2510902E-05  6.7379500E-05   15204.36       1.696560    
  6.7379500E-05  7.6350902E-05   14617.25       1.413722    
  7.6350902E-05  8.6516899E-05   10701.84       1.697952    
  8.6516899E-05  9.8036500E-05   6544.704       1.900775    
  9.8036500E-05  1.1109000E-04   7596.077       1.396615    
  1.1109000E-04  1.1678600E-04   7245.781       1.929407    
  1.1678600E-04  1.2277300E-04   5375.286       1.986851    
  1.2277300E-04  1.2906799E-04   7193.462       2.073570    
  1.2906799E-04  1.3568600E-04   7164.511       3.485743    
  1.3568600E-04  1.4264201E-04   5678.905       1.999006    
  1.4264201E-04  1.4995600E-04   4258.449       2.309690    
  1.4995600E-04  1.5764400E-04   3828.412       3.351640    
  1.5764400E-04  1.6163501E-04   3362.379       3.637542    
  1.6163501E-04  1.6572700E-04   3679.353       3.489626    
  1.6572700E-04  1.6992200E-04   3986.365       3.387519    
  1.6992200E-04  1.7422400E-04   4107.020       4.381045    
  1.7422400E-04  1.8315599E-04   3904.482       3.312322    
  1.8315599E-04  1.9254700E-04   3870.348       1.893242    
  1.9254700E-04  2.0241900E-04   3429.286       1.509109    
  2.0241900E-04  2.1279699E-04   2779.819       2.959701    
  2.1279699E-04  2.2370800E-04   2824.682       3.094954    
  2.2370800E-04  2.3517800E-04   2708.684       2.900953    
  2.3517800E-04  2.4723500E-04   2703.639       2.374496    
  2.4723500E-04  2.5991100E-04   2727.991       2.188497    
  2.5991100E-04  2.7323700E-04   2698.895       1.572607    
  2.7323700E-04  2.8015400E-04   2392.766       4.088082    
  2.8015400E-04  2.8724599E-04   1966.153       2.809138    
  2.8724599E-04  2.9451799E-04   1936.427       3.752922    
  2.9451799E-04  3.0197401E-04   2109.729       3.454886    
  3.0197401E-04  3.0961799E-04   1961.467       3.944953    
  3.0961799E-04  3.1745600E-04   1795.268       2.781533    
  3.1745600E-04  3.3373301E-04   1731.180       2.828382    
  3.3373301E-04  3.5084400E-04   1827.966       2.703423    
  3.5084400E-04  3.6883200E-04   1535.026       3.085087    
  3.6883200E-04  3.8774201E-04   1440.781       2.165714    
  3.8774201E-04  4.0762199E-04   1352.266       2.504445    
  4.0762199E-04  4.2852099E-04   1124.513       2.754050    
  4.2852099E-04  4.5049199E-04   997.7397       3.140105    
  4.5049199E-04  4.7358900E-04   1027.704       2.542963    
  4.7358900E-04  4.9787102E-04   969.2260       2.239598    
  4.9787102E-04  5.1047403E-04   933.0303       4.079747    
  5.1047403E-04  5.2339700E-04   922.4520       4.239757    
  5.2339700E-04  5.3664698E-04   723.6910       4.480736    
  5.3664698E-04  5.5023201E-04   797.0171       5.522388    
  5.5023201E-04  5.7844300E-04   714.8981       2.859171    
  5.7844300E-04  6.0810102E-04   645.9877       3.579530    
  6.0810102E-04  6.3927902E-04   596.0848       4.027560    
  6.3927902E-04  6.7205500E-04   468.3364       4.435724    
  6.7205500E-04  7.0651202E-04   495.1111       4.161765    
  7.0651202E-04  7.4273598E-04   420.4671       2.549229    
  7.4273598E-04  7.8081700E-04   363.6010       3.703020    
  7.8081700E-04  8.2085002E-04   292.5982       2.868985    
  8.2085002E-04  8.6293602E-04   265.0016       3.042615    
  8.6293602E-04  9.0717903E-04   265.4258       3.291379    
  9.0717903E-04  9.5369201E-04   216.6892       3.305596    
  9.5369201E-04  9.6163998E-04   192.3921       8.091033    
  9.6163998E-04  9.7783399E-04   194.5039       5.940223    
  9.7783399E-04  1.0025901E-03   178.9996       5.516085    
  1.0025901E-03  1.0539900E-03   172.6209       3.566847    
  1.0539900E-03  1.1080300E-03   169.7866       3.129596    
  1.1080300E-03  1.1648400E-03   152.2539       4.024736    
  1.1648400E-03  1.1943300E-03   131.1805       6.162823    
  1.1943300E-03  1.2245600E-03   142.6469       5.517711    
  1.2245600E-03  1.2873500E-03   134.4418       2.478662    
  1.2873500E-03  1.3533500E-03   132.0310       3.262388    
  1.3533500E-03  1.4227401E-03   132.4635       3.766681    
  1.4227401E-03  1.4956900E-03   116.8134       1.753710    
  1.4956900E-03  1.5335500E-03   122.8780       6.316695    
  1.5335500E-03  1.5723699E-03   117.6552       5.186954    
  1.5723699E-03  1.6121800E-03   110.9293       7.599473    
  1.6121800E-03  1.6529900E-03   114.6047       7.078670    
  1.6529900E-03  1.7377400E-03   106.0921       4.683676    
  1.7377400E-03  1.8268300E-03   100.4083       3.924421    
  1.8268300E-03  1.8730800E-03   97.71582       3.756392    
  1.8730800E-03  1.9205000E-03   89.75780       4.632089    
  1.9205000E-03  1.9691200E-03   92.70750       4.764132    
  1.9691200E-03  2.0189700E-03   83.16968       4.899183    
  2.0189700E-03  2.1224800E-03   82.21470       3.274414    
  2.1224800E-03  2.2313001E-03   78.56619       4.680580    
  2.2313001E-03  2.2688799E-03   75.26955       9.040850    
  2.2688799E-03  2.3068599E-03   75.20090       5.008200    
  2.3068599E-03  2.3457000E-03   73.30327       8.250432    
  2.3457000E-03  2.3652499E-03   65.44067       8.891152    
  2.3652499E-03  2.3852000E-03   68.05219       12.28199    
  2.3852000E-03  2.4251300E-03   55.17706       7.768297    
  2.4251300E-03  2.4659701E-03   60.88376       7.266613    
  2.4659701E-03  2.5923999E-03   55.19038       3.889159    
  2.5923999E-03  2.7253199E-03   48.79040       4.502127    
  2.7253199E-03  2.8650500E-03   47.57076       5.807513    
  2.8650500E-03  3.0119400E-03   40.24578       5.262004    
  3.0119400E-03  3.0881900E-03   39.36806       8.633590    
  3.0881900E-03  3.1663701E-03   36.57385       8.752148    
  3.1663701E-03  3.2465300E-03   34.10263       9.789392    
  3.2465300E-03  3.3287101E-03   28.74850       5.504964    
  3.3287101E-03  3.4993801E-03   32.86173       5.271462    
  3.4993801E-03  3.6787901E-03   27.95807       5.790237    
  3.6787901E-03  3.8674099E-03   29.66203       6.247078    
  3.8674099E-03  4.0656999E-03   25.51012       5.689878    
  4.0656999E-03  4.2741499E-03   23.55486       7.084284    
  4.2741499E-03  4.4932901E-03   22.19163       5.107933    
  4.4932901E-03  4.6070400E-03   21.71011       11.44375    
  4.6070400E-03  4.7236700E-03   22.24679       7.550867    
  4.7236700E-03  4.8432499E-03   19.82263       6.430989    
  4.8432499E-03  4.9658502E-03   18.74558       9.771724    
  4.9658502E-03  5.2204598E-03   18.18101       6.463974    
  5.2204598E-03  5.4881200E-03   16.69514       6.271875    
  5.4881200E-03  5.7695000E-03   17.22405       8.340920    
  5.7695000E-03  5.9155500E-03   13.38647       7.602436    
  5.9155500E-03  6.0653100E-03   15.97784       7.722044    
  6.0653100E-03  6.2188501E-03   12.29580       10.92011    
  6.2188501E-03  6.3762800E-03   13.28044       11.98229    
  6.3762800E-03  6.5377001E-03   13.12884       9.641580    
  6.5377001E-03  6.5923799E-03   11.71844       17.53678    
  6.5923799E-03  6.6475999E-03   10.02064       16.85357    
  6.6475999E-03  6.7031998E-03   13.28291       14.29103    
  6.7031998E-03  6.8728901E-03   11.99037       9.666723    
  6.8728901E-03  7.0468802E-03   11.91555       9.024661    
  7.0468802E-03  7.2252699E-03   11.49081       9.211808    
  7.2252699E-03  7.4081798E-03   10.29976       10.38535    
  7.4081798E-03  7.5957198E-03   10.29349       10.15230    
  7.5957198E-03  7.7880099E-03   8.995830       12.34404    
  7.7880099E-03  7.9851598E-03   9.545389       9.903829    
  7.9851598E-03  8.1873098E-03   7.901078       10.62516    
  8.1873098E-03  8.3945701E-03   9.253044       6.760441    
  8.3945701E-03  8.6070802E-03   9.360271       11.29050    
  8.6070802E-03  8.8249696E-03   7.632714       7.986159    
  8.8249696E-03  9.0483697E-03   6.305112       10.93107    
  9.0483697E-03  9.2774397E-03   8.418453       11.37975    
  9.2774397E-03  9.5122904E-03   6.783351       11.16156    
  9.5122904E-03  9.7530996E-03   6.392651       9.885537    
  9.7530996E-03  9.9999998E-03   8.350852       8.880922    
  9.9999998E-03  1.0253200E-02   7.595296       10.17534    
  1.0253200E-02  1.0512700E-02   5.686602       12.17131    
  1.0512700E-02  1.0778800E-02   7.395193       11.53961    
  1.0778800E-02  1.1051700E-02   6.498480       15.28234    
  1.1051700E-02  1.1331500E-02   6.840604       11.11869    
  1.1331500E-02  1.1618300E-02   5.734679       13.14485    
  1.1618300E-02  1.1912500E-02   5.621025       12.90402    
  1.1912500E-02  1.2214000E-02   5.332720       11.12824    
  1.2214000E-02  1.2523200E-02   4.827341       16.52723    
  1.2523200E-02  1.2840200E-02   4.205998       14.92328    
  1.2840200E-02  1.3165300E-02   4.662297       10.13096    
  1.3165300E-02  1.3498600E-02   4.626388       7.030627    
  1.3498600E-02  1.3840300E-02   4.259612       11.75204    
  1.3840300E-02  1.4190700E-02   3.921771       11.66937    
  1.4190700E-02  1.4549900E-02   4.817573       12.06924    
  1.4549900E-02  1.4918300E-02   4.518642       12.08004    
  1.4918300E-02  1.5295900E-02   3.645640       14.07243    
  1.5295900E-02  1.5683100E-02   2.938076       11.00707    
  1.5683100E-02  1.6080100E-02   3.890811       13.31460    
  1.6080100E-02  1.6487200E-02   3.241875       11.05732    
  1.6487200E-02  1.6904600E-02   2.595695       17.88230    
  1.6904600E-02  1.7332500E-02   2.730486       14.98371    
  1.7332500E-02  1.7771300E-02   2.151981       12.25074    
  1.7771300E-02  1.8221200E-02   3.242552       13.04066    
  1.8221200E-02  1.8682500E-02   2.502972       7.838503    
  1.8682500E-02  1.9155400E-02   2.603228       13.30287    
  1.9155400E-02  1.9640300E-02   1.538002       15.99843    
  1.9640300E-02  2.0000000E-02   2.851056       23.67790    
