 # Detector n:  1  HeIInflux 
 # N. of energy intervals 260
  1.0000100E-14  2.0000000E-13  3.8148903E+10   18.54604    
  2.0000000E-13  2.9297300E-13  8.4328219E+10   23.47093    
  2.9297300E-13  4.2916701E-13  7.9805006E+10   7.869082    
  4.2916701E-13  6.2867300E-13  1.5576298E+11   8.801837    
  6.2867300E-13  9.2092198E-13  2.1405370E+11   7.504585    
  9.2092198E-13  1.3490300E-12  2.8630666E+11   3.548324    
  1.3490300E-12  1.9761499E-12  3.7700806E+11   2.935717    
  1.9761499E-12  2.8947901E-12  5.1278257E+11   1.973985    
  2.8947901E-12  4.2404799E-12  6.0621311E+11   1.565518    
  4.2404799E-12  6.2117499E-12  6.8422802E+11  0.9892879    
  6.2117499E-12  9.0993801E-12  7.1866607E+11  0.9511074    
  9.0993801E-12  1.3329400E-11  6.4165695E+11  0.5246383    
  1.3329400E-11  1.9525799E-11  4.8058289E+11  0.7360883    
  1.9525799E-11  2.8602700E-11  2.8502842E+11   1.022716    
  2.8602700E-11  4.1899099E-11  1.2565900E+11  0.9072540    
  4.1899099E-11  6.1376598E-11  4.8982204E+10   1.360649    
  6.1376598E-11  8.9908601E-11  2.0503210E+10   1.822933    
  8.9908601E-11  1.3170399E-10  1.1003401E+10   1.008575    
  1.3170399E-10  1.9292901E-10  6.5612810E+09  0.9772475    
  1.9292901E-10  2.8261499E-10  4.2915579E+09   1.111935    
  2.8261499E-10  4.1399401E-10  2.8453069E+09  0.8887626    
  4.1399401E-10  5.3157900E-10  2.0871596E+09   1.161402    
  5.3157900E-10  6.2506200E-10  1.7113178E+09   1.252494    
  6.2506200E-10  6.8256001E-10  1.4926244E+09   1.174851    
  6.8256001E-10  8.3368101E-10  1.3011773E+09  0.8616000    
  8.3368101E-10  8.7642499E-10  1.1369838E+09   2.181663    
  8.7642499E-10  1.1253500E-09  9.9252250E+08  0.8022984    
  1.1253500E-09  1.4449800E-09  7.5460269E+08  0.9009478    
  1.4449800E-09  1.8553900E-09  6.0825491E+08   1.129042    
  1.8553900E-09  2.3823701E-09  4.6337331E+08   1.000510    
  2.3823701E-09  3.0590199E-09  3.6197802E+08  0.5888482    
  3.0590199E-09  3.9278598E-09  2.8135011E+08  0.5283428    
  3.9278598E-09  5.0434799E-09  2.2122634E+08  0.7580528    
  5.0434799E-09  6.4759500E-09  1.7153261E+08  0.8981243    
  6.4759500E-09  8.3152898E-09  1.3476373E+08  0.9336478    
  8.3152898E-09  1.0677000E-08  1.0561859E+08  0.8820394    
  1.0677000E-08  1.3709600E-08  8.1570576E+07  0.8075548    
  1.3709600E-08  1.7603501E-08  6.3518024E+07  0.9544131    
  1.7603501E-08  2.2603301E-08  5.0175424E+07  0.9845288    
  2.2603301E-08  2.9023200E-08  3.9257904E+07  0.7327856    
  2.9023200E-08  3.7266499E-08  3.0233200E+07  0.7217557    
  3.7266499E-08  4.7851199E-08  2.3728834E+07  0.8649706    
  4.7851199E-08  6.1442101E-08  1.8243856E+07  0.5155993    
  6.1442101E-08  7.8893301E-08  1.4636708E+07  0.6781786    
  7.8893301E-08  1.0130100E-07  1.1084585E+07  0.9071431    
  1.0130100E-07  1.3007300E-07   8641701.      0.5992872    
  1.3007300E-07  1.6701701E-07   6782183.      0.6642163    
  1.6701701E-07  2.1445400E-07   5259279.      0.7850301    
  2.1445400E-07  2.7536399E-07   4157908.      0.6161051    
  2.7536399E-07  3.5357499E-07   3119223.      0.8228974    
  3.5357499E-07  4.5399901E-07   2408496.       1.030858    
  4.5399901E-07  5.8294700E-07   1885109.      0.9662057    
  5.8294700E-07  7.4851800E-07   1462351.      0.6639490    
  7.4851800E-07  9.6111603E-07   1149734.      0.7718210    
  9.6111603E-07  1.2341000E-06   869851.8       1.179541    
  1.2341000E-06  1.3638900E-06   729785.6       1.531855    
  1.3638900E-06  1.5073300E-06   650035.0      0.8388246    
  1.5073300E-06  1.5846100E-06   611413.8       1.905345    
  1.5846100E-06  1.6658601E-06   580490.9       2.177396    
  1.6658601E-06  1.8410600E-06   524261.1       1.760372    
  1.8410600E-06  2.0346799E-06   477984.2       1.227835    
  2.0346799E-06  2.2486699E-06   430277.4       1.365824    
  2.2486699E-06  2.4851699E-06   398105.4       1.302286    
  2.4851699E-06  2.6125899E-06   340774.0       1.933041    
  2.6125899E-06  2.7465401E-06   337784.4       2.241242    
  2.7465401E-06  2.8634900E-06   322622.0       2.009894    
  2.8634900E-06  3.0353899E-06   309523.4       1.909400    
  3.0353899E-06  3.3546301E-06   278086.9       1.663430    
  3.3546301E-06  3.7074401E-06   249970.3       1.389251    
  3.7074401E-06  4.0973500E-06   223316.8      0.8622549    
  4.0973500E-06  4.3074201E-06   218284.4       1.454149    
  4.3074201E-06  4.5282700E-06   197449.5       1.957835    
  4.5282700E-06  5.0045101E-06   178902.9       1.066830    
  5.0045101E-06  5.5308401E-06   179099.0       1.689342    
  5.5308401E-06  6.2672698E-06   126031.5       1.658433    
  6.2672698E-06  7.1017398E-06   125791.3       1.660028    
  7.1017398E-06  8.0473301E-06   109759.5       1.612802    
  8.0473301E-06  9.1188203E-06   93464.22       1.026971    
  9.1188203E-06  1.0333000E-05   83094.56      0.9680384    
  1.0333000E-05  1.1708800E-05   71401.42       1.188389    
  1.1708800E-05  1.3267800E-05   62715.23      0.9359367    
  1.3267800E-05  1.5034400E-05   54889.18       1.428432    
  1.5034400E-05  1.7036200E-05   47647.18       1.423742    
  1.7036200E-05  1.9304500E-05   40846.71       1.584827    
  1.9304500E-05  2.1334799E-05   34958.74       1.480479    
  2.1334799E-05  2.1874899E-05   33623.65       1.355931    
  2.1874899E-05  2.3578599E-05   31536.41       1.404548    
  2.3578599E-05  2.4175501E-05   29830.17       2.820109    
  2.4175501E-05  2.4787500E-05   29404.50       3.771943    
  2.4787500E-05  2.6058400E-05   27595.07       3.014454    
  2.6058400E-05  2.8087899E-05   27365.75       1.448106    
  2.8087899E-05  3.1827800E-05   29395.84       1.030699    
  3.1827800E-05  3.4306700E-05   19035.95       1.611619    
  3.4306700E-05  3.5175199E-05   9781.646       3.627870    
  3.5175199E-05  3.6065601E-05   9863.519       4.659154    
  3.6065601E-05  4.0867701E-05   12216.29       2.056275    
  4.0867701E-05  4.6309200E-05   13248.03       1.262807    
  4.6309200E-05  5.2475199E-05   12133.58       1.586757    
  5.2475199E-05  5.6562199E-05   10902.21       1.613616    
  5.6562199E-05  5.9462200E-05   9819.910       2.248391    
  5.9462200E-05  6.2510902E-05   9355.606       1.746164    
  6.2510902E-05  6.7379500E-05   9064.565       2.045702    
  6.7379500E-05  7.6350902E-05   9051.091       1.340860    
  7.6350902E-05  8.6516899E-05   6546.788       1.811034    
  8.6516899E-05  9.8036500E-05   3951.146       1.714050    
  9.8036500E-05  1.1109000E-04   4552.772       1.859336    
  1.1109000E-04  1.1678600E-04   4436.949       2.418590    
  1.1678600E-04  1.2277300E-04   3098.883       3.139623    
  1.2277300E-04  1.2906799E-04   4400.563       2.420252    
  1.2906799E-04  1.3568600E-04   4527.485       2.380961    
  1.3568600E-04  1.4264201E-04   3357.656       2.055694    
  1.4264201E-04  1.4995600E-04   2549.202       2.139014    
  1.4995600E-04  1.5764400E-04   2400.137       2.781789    
  1.5764400E-04  1.6163501E-04   1883.560       4.223333    
  1.6163501E-04  1.6572700E-04   2258.682       3.691583    
  1.6572700E-04  1.6992200E-04   2233.265       2.703426    
  1.6992200E-04  1.7422400E-04   2417.389       3.072710    
  1.7422400E-04  1.8315599E-04   2324.503       2.938080    
  1.8315599E-04  1.9254700E-04   2405.225       3.576152    
  1.9254700E-04  2.0241900E-04   2173.667       2.466986    
  2.0241900E-04  2.1279699E-04   1621.246       3.573637    
  2.1279699E-04  2.2370800E-04   1718.122       3.352301    
  2.2370800E-04  2.3517800E-04   1570.146       2.811223    
  2.3517800E-04  2.4723500E-04   1587.641       2.853082    
  2.4723500E-04  2.5991100E-04   1597.560       3.179552    
  2.5991100E-04  2.7323700E-04   1646.336       2.602903    
  2.7323700E-04  2.8015400E-04   1468.018       3.680534    
  2.8015400E-04  2.8724599E-04   1195.725       3.846868    
  2.8724599E-04  2.9451799E-04   1112.575       5.287983    
  2.9451799E-04  3.0197401E-04   1147.510       4.163647    
  3.0197401E-04  3.0961799E-04   1150.279       3.720210    
  3.0961799E-04  3.1745600E-04   1053.157       4.890043    
  3.1745600E-04  3.3373301E-04   1133.915       3.243066    
  3.3373301E-04  3.5084400E-04   1071.487       2.452508    
  3.5084400E-04  3.6883200E-04   880.2654       3.731361    
  3.6883200E-04  3.8774201E-04   860.5240       2.924076    
  3.8774201E-04  4.0762199E-04   880.3817       2.731439    
  4.0762199E-04  4.2852099E-04   703.7579       3.230755    
  4.2852099E-04  4.5049199E-04   635.2918       2.956297    
  4.5049199E-04  4.7358900E-04   599.7460       2.515830    
  4.7358900E-04  4.9787102E-04   631.1683       2.837445    
  4.9787102E-04  5.1047403E-04   560.3745       3.533556    
  5.1047403E-04  5.2339700E-04   595.1370       3.526911    
  5.2339700E-04  5.3664698E-04   484.9189       6.217201    
  5.3664698E-04  5.5023201E-04   511.7013       4.099311    
  5.5023201E-04  5.7844300E-04   430.6549       3.509328    
  5.7844300E-04  6.0810102E-04   433.4347       3.130944    
  6.0810102E-04  6.3927902E-04   372.4335       3.298186    
  6.3927902E-04  6.7205500E-04   312.8734       2.741443    
  6.7205500E-04  7.0651202E-04   317.5938       3.072529    
  7.0651202E-04  7.4273598E-04   289.0074       3.488273    
  7.4273598E-04  7.8081700E-04   247.5789       2.953769    
  7.8081700E-04  8.2085002E-04   206.8009       4.133221    
  8.2085002E-04  8.6293602E-04   180.5658       3.171375    
  8.6293602E-04  9.0717903E-04   172.2268       3.134970    
  9.0717903E-04  9.5369201E-04   157.2496       4.267889    
  9.5369201E-04  9.6163998E-04   157.6957       6.362229    
  9.6163998E-04  9.7783399E-04   147.6599       6.135635    
  9.7783399E-04  1.0025901E-03   128.5875       4.491672    
  1.0025901E-03  1.0539900E-03   126.3256       3.031597    
  1.0539900E-03  1.1080300E-03   117.9502       3.256526    
  1.1080300E-03  1.1648400E-03   102.7127       3.871626    
  1.1648400E-03  1.1943300E-03   98.05318       7.532000    
  1.1943300E-03  1.2245600E-03   98.58702       4.907479    
  1.2245600E-03  1.2873500E-03   89.71171       3.794670    
  1.2873500E-03  1.3533500E-03   97.17927       3.690315    
  1.3533500E-03  1.4227401E-03   87.43333       4.900871    
  1.4227401E-03  1.4956900E-03   92.56668       3.638596    
  1.4956900E-03  1.5335500E-03   85.39859       5.850687    
  1.5335500E-03  1.5723699E-03   78.51526       5.217770    
  1.5723699E-03  1.6121800E-03   82.71957       4.350233    
  1.6121800E-03  1.6529900E-03   73.58723       6.737664    
  1.6529900E-03  1.7377400E-03   67.73037       3.767180    
  1.7377400E-03  1.8268300E-03   64.12827       4.885808    
  1.8268300E-03  1.8730800E-03   65.18423       7.265878    
  1.8730800E-03  1.9205000E-03   63.10064       4.602948    
  1.9205000E-03  1.9691200E-03   54.41673       6.233142    
  1.9691200E-03  2.0189700E-03   60.38522       6.249094    
  2.0189700E-03  2.1224800E-03   49.29865       4.128745    
  2.1224800E-03  2.2313001E-03   52.00364       4.540464    
  2.2313001E-03  2.2688799E-03   44.21763       12.23992    
  2.2688799E-03  2.3068599E-03   41.20550       12.41980    
  2.3068599E-03  2.3457000E-03   46.84502       8.153022    
  2.3457000E-03  2.3652499E-03   45.69582       11.01305    
  2.3652499E-03  2.3852000E-03   43.61950       15.03035    
  2.3852000E-03  2.4251300E-03   47.33938       9.768136    
  2.4251300E-03  2.4659701E-03   43.26923       7.844270    
  2.4659701E-03  2.5923999E-03   34.92590       6.835808    
  2.5923999E-03  2.7253199E-03   31.53189       4.656492    
  2.7253199E-03  2.8650500E-03   26.96046       7.424994    
  2.8650500E-03  3.0119400E-03   26.74436       6.256930    
  3.0119400E-03  3.0881900E-03   24.29943       9.937354    
  3.0881900E-03  3.1663701E-03   24.30641       6.781673    
  3.1663701E-03  3.2465300E-03   24.05401       8.281775    
  3.2465300E-03  3.3287101E-03   19.67102       7.729575    
  3.3287101E-03  3.4993801E-03   18.78470       6.422755    
  3.4993801E-03  3.6787901E-03   20.40047       6.134675    
  3.6787901E-03  3.8674099E-03   17.48737       6.569621    
  3.8674099E-03  4.0656999E-03   15.78584       6.341840    
  4.0656999E-03  4.2741499E-03   17.61024       7.082303    
  4.2741499E-03  4.4932901E-03   13.63091       5.463514    
  4.4932901E-03  4.6070400E-03   13.56953       8.578577    
  4.6070400E-03  4.7236700E-03   12.64028       11.43595    
  4.7236700E-03  4.8432499E-03   13.50735       5.804329    
  4.8432499E-03  4.9658502E-03   12.92115       11.34510    
  4.9658502E-03  5.2204598E-03   12.07444       4.994039    
  5.2204598E-03  5.4881200E-03   10.61949       7.887094    
  5.4881200E-03  5.7695000E-03   9.184896       6.116980    
  5.7695000E-03  5.9155500E-03   9.822173       9.719560    
  5.9155500E-03  6.0653100E-03   8.399748       10.38974    
  6.0653100E-03  6.2188501E-03   9.340734       9.920938    
  6.2188501E-03  6.3762800E-03   9.291983       6.787687    
  6.3762800E-03  6.5377001E-03   6.425780       10.02359    
  6.5377001E-03  6.5923799E-03   7.934198       19.58290    
  6.5923799E-03  6.6475999E-03   7.482612       21.27868    
  6.6475999E-03  6.7031998E-03   10.09621       10.41982    
  6.7031998E-03  6.8728901E-03   6.580698       13.16440    
  6.8728901E-03  7.0468802E-03   6.173675       8.068273    
  7.0468802E-03  7.2252699E-03   7.251498       10.74317    
  7.2252699E-03  7.4081798E-03   5.373276       12.19055    
  7.4081798E-03  7.5957198E-03   6.174092       12.70977    
  7.5957198E-03  7.7880099E-03   5.996335       10.27309    
  7.7880099E-03  7.9851598E-03   5.279372       12.75167    
  7.9851598E-03  8.1873098E-03   6.066413       8.882043    
  8.1873098E-03  8.3945701E-03   4.609727       11.85859    
  8.3945701E-03  8.6070802E-03   5.022704       10.36664    
  8.6070802E-03  8.8249696E-03   5.561623       9.579473    
  8.8249696E-03  9.0483697E-03   4.578788       12.83757    
  9.0483697E-03  9.2774397E-03   4.686890       9.762951    
  9.2774397E-03  9.5122904E-03   4.804721       7.014904    
  9.5122904E-03  9.7530996E-03   4.061155       10.27555    
  9.7530996E-03  9.9999998E-03   3.788711       13.24927    
  9.9999998E-03  1.0253200E-02   4.917837       9.076698    
  1.0253200E-02  1.0512700E-02   4.025194       12.20405    
  1.0512700E-02  1.0778800E-02   3.882008       10.66414    
  1.0778800E-02  1.1051700E-02   3.685054       16.74233    
  1.1051700E-02  1.1331500E-02   2.679728       11.78073    
  1.1331500E-02  1.1618300E-02   3.588109       16.37415    
  1.1618300E-02  1.1912500E-02   3.559870       13.11307    
  1.1912500E-02  1.2214000E-02   4.062335       9.370825    
  1.2214000E-02  1.2523200E-02   2.406452       13.99839    
  1.2523200E-02  1.2840200E-02   3.332869       14.07710    
  1.2840200E-02  1.3165300E-02   2.243845       13.66375    
  1.3165300E-02  1.3498600E-02   3.103093       12.30665    
  1.3498600E-02  1.3840300E-02   2.556472       13.76955    
  1.3840300E-02  1.4190700E-02   2.301628       15.00674    
  1.4190700E-02  1.4549900E-02   2.458333       9.075739    
  1.4549900E-02  1.4918300E-02   1.787881       12.82833    
  1.4918300E-02  1.5295900E-02   1.773577       15.74342    
  1.5295900E-02  1.5683100E-02   2.407389       12.42657    
  1.5683100E-02  1.6080100E-02   1.962036       12.98190    
  1.6080100E-02  1.6487200E-02   1.746614       15.16306    
  1.6487200E-02  1.6904600E-02   2.648704       14.02891    
  1.6904600E-02  1.7332500E-02   2.174754       10.94214    
  1.7332500E-02  1.7771300E-02   2.194803       9.324957    
  1.7771300E-02  1.8221200E-02   1.746022       12.87383    
  1.8221200E-02  1.8682500E-02   2.422246       10.55740    
  1.8682500E-02  1.9155400E-02   1.757422       14.78329    
  1.9155400E-02  1.9640300E-02   1.480022       11.12267    
  1.9640300E-02  2.0000000E-02   1.766424       15.03352    
