 # Detector n:            1   HeIInflux 
 # N. of energy intervals         260
  1.0000100E-14  2.0000000E-13  8.4050969E+10   1.025150    
  2.0000000E-13  2.9297300E-13  1.8344854E+11  0.9502758    
  2.9297300E-13  4.2916701E-13  2.6525494E+11  0.6733047    
  4.2916701E-13  6.2867300E-13  3.6937505E+11  0.4781160    
  6.2867300E-13  9.2092198E-13  5.0711108E+11  0.3411169    
  9.2092198E-13  1.3490300E-12  6.8191912E+11  0.2543322    
  1.3490300E-12  1.9761499E-12  8.8054949E+11  0.1905998    
  1.9761499E-12  2.8947901E-12  1.1092343E+12  0.1423672    
  2.8947901E-12  4.2404799E-12  1.3181311E+12  0.1138786    
  4.2404799E-12  6.2117499E-12  1.4639761E+12  9.1763936E-02
  6.2117499E-12  9.0993801E-12  1.4887699E+12  7.8041345E-02
  9.0993801E-12  1.3329400E-11  1.3511351E+12  7.4075460E-02
  1.3329400E-11  1.9525799E-11  1.0630669E+12  7.1602121E-02
  1.9525799E-11  2.8602700E-11  7.0027713E+11  7.4956968E-02
  2.8602700E-11  4.1899099E-11  3.8812100E+11  7.7599615E-02
  4.1899099E-11  6.1376598E-11  1.9397240E+11  8.2620434E-02
  6.1376598E-11  8.9908601E-11  8.8473092E+10  9.8911412E-02
  8.9908601E-11  1.3170399E-10  3.4352368E+10  0.1213733    
  1.3170399E-10  1.9292901E-10  1.2756521E+10  0.1583939    
  1.9292901E-10  2.8261499E-10  5.8042875E+09  0.1830464    
  2.8261499E-10  4.1399401E-10  3.3933432E+09  0.2105886    
  4.1399401E-10  5.3157900E-10  2.3720474E+09  0.2550944    
  5.3157900E-10  6.2506200E-10  1.9044102E+09  0.3099831    
  6.2506200E-10  6.8256001E-10  1.6531857E+09  0.4337399    
  6.8256001E-10  8.3368101E-10  1.4148004E+09  0.2918736    
  8.3368101E-10  8.7642499E-10  1.2390833E+09  0.5621099    
  8.7642499E-10  1.1253500E-09  1.0537233E+09  0.2634815    
  1.1253500E-09  1.4449800E-09  8.0694938E+08  0.2651561    
  1.4449800E-09  1.8553900E-09  6.1951059E+08  0.2656663    
  1.8553900E-09  2.3823701E-09  4.7568397E+08  0.2616692    
  2.3823701E-09  3.0590199E-09  3.7017046E+08  0.2646556    
  3.0590199E-09  3.9278598E-09  2.8451686E+08  0.2742401    
  3.9278598E-09  5.0434799E-09  2.1932454E+08  0.2799143    
  5.0434799E-09  6.4759500E-09  1.7038821E+08  0.2684137    
  6.4759500E-09  8.3152898E-09  1.3236934E+08  0.2740437    
  8.3152898E-09  1.0677000E-08  1.0225482E+08  0.2897047    
  1.0677000E-08  1.3709600E-08  7.9512864E+07  0.2782564    
  1.3709600E-08  1.7603501E-08  6.1628188E+07  0.2828700    
  1.7603501E-08  2.2603301E-08  4.7628168E+07  0.2809005    
  2.2603301E-08  2.9023200E-08  3.6860564E+07  0.2734389    
  2.9023200E-08  3.7266499E-08  2.8435562E+07  0.2755491    
  3.7266499E-08  4.7851199E-08  2.1861268E+07  0.2859582    
  4.7851199E-08  6.1442101E-08  1.6979304E+07  0.2803459    
  6.1442101E-08  7.8893301E-08  1.3054960E+07  0.2878655    
  7.8893301E-08  1.0130100E-07  1.0097418E+07  0.2858932    
  1.0130100E-07  1.3007300E-07   7785632.      0.2861721    
  1.3007300E-07  1.6701701E-07   5998150.      0.2755482    
  1.6701701E-07  2.1445400E-07   4589418.      0.2895257    
  2.1445400E-07  2.7536399E-07   3526665.      0.2892563    
  2.7536399E-07  3.5357499E-07   2724764.      0.2966222    
  3.5357499E-07  4.5399901E-07   2042478.      0.3063276    
  4.5399901E-07  5.8294700E-07   1577377.      0.2984933    
  5.8294700E-07  7.4851800E-07   1214882.      0.3165445    
  7.4851800E-07  9.6111603E-07   929251.1      0.3059883    
  9.6111603E-07  1.2341000E-06   706471.2      0.3268238    
  1.2341000E-06  1.3638900E-06   587885.8      0.4533203    
  1.3638900E-06  1.5073300E-06   525667.9      0.5091599    
  1.5073300E-06  1.5846100E-06   479254.2      0.6861261    
  1.5846100E-06  1.6658601E-06   458828.9      0.6926196    
  1.6658601E-06  1.8410600E-06   425562.6      0.4966555    
  1.8410600E-06  2.0346799E-06   403593.7      0.4694332    
  2.0346799E-06  2.2486699E-06   315249.2      0.4974800    
  2.2486699E-06  2.4851699E-06   299382.8      0.5007338    
  2.4851699E-06  2.6125899E-06   269162.7      0.6937902    
  2.6125899E-06  2.7465401E-06   253827.5      0.7130910    
  2.7465401E-06  2.8634900E-06   249735.3      0.7541862    
  2.8634900E-06  3.0353899E-06   235173.2      0.6546713    
  3.0353899E-06  3.3546301E-06   216724.6      0.5016394    
  3.3546301E-06  3.7074401E-06   195306.0      0.5009487    
  3.7074401E-06  4.0973500E-06   174988.1      0.5060095    
  4.0973500E-06  4.3074201E-06   161198.6      0.7275491    
  4.3074201E-06  4.5282700E-06   148425.1      0.7354846    
  4.5282700E-06  5.0045101E-06   139108.6      0.5195832    
  5.0045101E-06  5.5308401E-06   138562.9      0.4994693    
  5.5308401E-06  6.2672698E-06   92506.70      0.5136466    
  6.2672698E-06  7.1017398E-06   93581.53      0.4754755    
  7.1017398E-06  8.0473301E-06   82299.34      0.4868271    
  8.0473301E-06  9.1188203E-06   71485.22      0.4814958    
  9.1188203E-06  1.0333000E-05   61289.48      0.4801220    
  1.0333000E-05  1.1708800E-05   53150.30      0.4779317    
  1.1708800E-05  1.3267800E-05   46797.59      0.5472946    
  1.3267800E-05  1.5034400E-05   39749.84      0.4992127    
  1.5034400E-05  1.7036200E-05   34072.46      0.5000963    
  1.7036200E-05  1.9304500E-05   29547.25      0.5351480    
  1.9304500E-05  2.1334799E-05   25855.51      0.5902656    
  2.1334799E-05  2.1874899E-05   24464.75       1.122079    
  2.1874899E-05  2.3578599E-05   22597.13      0.6611375    
  2.3578599E-05  2.4175501E-05   21858.07       1.147383    
  2.4175501E-05  2.4787500E-05   21128.39       1.164515    
  2.4787500E-05  2.6058400E-05   20475.87      0.7926970    
  2.6058400E-05  2.8087899E-05   19820.17      0.6436526    
  2.8087899E-05  3.1827800E-05   21013.72      0.4516542    
  3.1827800E-05  3.4306700E-05   12667.10      0.7459991    
  3.4306700E-05  3.5175199E-05   6158.620       1.745838    
  3.5175199E-05  3.6065601E-05   5879.988       1.750268    
  3.6065601E-05  4.0867701E-05   7952.322      0.6772372    
  4.0867701E-05  4.6309200E-05   9326.704      0.6264540    
  4.6309200E-05  5.2475199E-05   8590.001      0.6079310    
  5.2475199E-05  5.6562199E-05   7654.284      0.7390515    
  5.6562199E-05  5.9462200E-05   7097.678      0.9175377    
  5.9462200E-05  6.2510902E-05   6876.410      0.8809490    
  6.2510902E-05  6.7379500E-05   6615.671      0.7341071    
  6.7379500E-05  7.6350902E-05   6535.126      0.5573709    
  7.6350902E-05  8.6516899E-05   4558.959      0.6085957    
  8.6516899E-05  9.8036500E-05   2519.967      0.7596245    
  9.8036500E-05  1.1109000E-04   3211.313      0.6507542    
  1.1109000E-04  1.1678600E-04   3245.631      0.9810253    
  1.1678600E-04  1.2277300E-04   2165.629       1.123967    
  1.2277300E-04  1.2906799E-04   3254.677      0.8974510    
  1.2906799E-04  1.3568600E-04   3257.372      0.8456872    
  1.3568600E-04  1.4264201E-04   2348.550       1.034413    
  1.4264201E-04  1.4995600E-04   1756.181       1.111446    
  1.4995600E-04  1.5764400E-04   1647.482       1.100656    
  1.5764400E-04  1.6163501E-04   1273.699       1.767671    
  1.6163501E-04  1.6572700E-04   1567.216       1.531671    
  1.6572700E-04  1.6992200E-04   1658.637       1.531623    
  1.6992200E-04  1.7422400E-04   1647.061       1.513296    
  1.7422400E-04  1.8315599E-04   1730.387       1.024685    
  1.8315599E-04  1.9254700E-04   1742.223      0.9791004    
  1.9254700E-04  2.0241900E-04   1552.207       1.074648    
  2.0241900E-04  2.1279699E-04   1236.458       1.066102    
  2.1279699E-04  2.2370800E-04   1208.355       1.077796    
  2.2370800E-04  2.3517800E-04   1190.488       1.103356    
  2.3517800E-04  2.4723500E-04   1216.302       1.054585    
  2.4723500E-04  2.5991100E-04   1209.735       1.037806    
  2.5991100E-04  2.7323700E-04   1256.996      0.9567459    
  2.7323700E-04  2.8015400E-04   1098.396       1.430409    
  2.8015400E-04  2.8724599E-04   912.8055       1.543135    
  2.8724599E-04  2.9451799E-04   876.2595       1.565423    
  2.9451799E-04  3.0197401E-04   862.1617       1.435650    
  3.0197401E-04  3.0961799E-04   869.3137       1.497186    
  3.0961799E-04  3.1745600E-04   798.5881       1.526418    
  3.1745600E-04  3.3373301E-04   822.4247       1.030056    
  3.3373301E-04  3.5084400E-04   838.0036      0.9892457    
  3.5084400E-04  3.6883200E-04   700.4942       1.123405    
  3.6883200E-04  3.8774201E-04   642.9225       1.108243    
  3.8774201E-04  4.0762199E-04   636.1924       1.076323    
  4.0762199E-04  4.2852099E-04   513.3885       1.120037    
  4.2852099E-04  4.5049199E-04   470.3748       1.158318    
  4.5049199E-04  4.7358900E-04   458.7091       1.130527    
  4.7358900E-04  4.9787102E-04   453.8947       1.178419    
  4.9787102E-04  5.1047403E-04   448.4224       1.555703    
  5.1047403E-04  5.2339700E-04   433.7669       1.531316    
  5.2339700E-04  5.3664698E-04   363.9070       1.716076    
  5.3664698E-04  5.5023201E-04   379.2078       1.628303    
  5.5023201E-04  5.7844300E-04   349.8469       1.140728    
  5.7844300E-04  6.0810102E-04   335.5941       1.157398    
  6.0810102E-04  6.3927902E-04   303.0093       1.138063    
  6.3927902E-04  6.7205500E-04   250.7618       1.148287    
  6.7205500E-04  7.0651202E-04   247.2444       1.153450    
  7.0651202E-04  7.4273598E-04   217.5796       1.160281    
  7.4273598E-04  7.8081700E-04   189.6760       1.191905    
  7.8081700E-04  8.2085002E-04   154.1636       1.218672    
  8.2085002E-04  8.6293602E-04   140.0537       1.240635    
  8.6293602E-04  9.0717903E-04   123.3304       1.158472    
  9.0717903E-04  9.5369201E-04   111.3749       1.198525    
  9.5369201E-04  9.6163998E-04   102.6709       2.802374    
  9.6163998E-04  9.7783399E-04   97.05152       2.109766    
  9.7783399E-04  1.0025901E-03   96.28486       1.724310    
  1.0025901E-03  1.0539900E-03   91.27988       1.194718    
  1.0539900E-03  1.1080300E-03   91.14941       1.197440    
  1.1080300E-03  1.1648400E-03   83.49001       1.256434    
  1.1648400E-03  1.1943300E-03   80.78275       1.641070    
  1.1943300E-03  1.2245600E-03   82.04929       1.617339    
  1.2245600E-03  1.2873500E-03   79.37968       1.199859    
  1.2873500E-03  1.3533500E-03   78.55501       1.229204    
  1.3533500E-03  1.4227401E-03   78.19895       1.190738    
  1.4227401E-03  1.4956900E-03   76.53545       1.211992    
  1.4956900E-03  1.5335500E-03   76.45782       1.652540    
  1.5335500E-03  1.5723699E-03   75.66605       1.650841    
  1.5723699E-03  1.6121800E-03   77.76089       1.758235    
  1.6121800E-03  1.6529900E-03   74.46710       1.699841    
  1.6529900E-03  1.7377400E-03   73.13437       1.219970    
  1.7377400E-03  1.8268300E-03   70.14883       1.240918    
  1.8268300E-03  1.8730800E-03   70.81712       1.645918    
  1.8730800E-03  1.9205000E-03   67.79446       1.705958    
  1.9205000E-03  1.9691200E-03   66.35624       1.736632    
  1.9691200E-03  2.0189700E-03   67.51770       1.733084    
  2.0189700E-03  2.1224800E-03   62.69500       1.274533    
  2.1224800E-03  2.2313001E-03   61.58023       1.273125    
  2.2313001E-03  2.2688799E-03   60.57386       2.164242    
  2.2688799E-03  2.3068599E-03   59.50210       2.107543    
  2.3068599E-03  2.3457000E-03   57.94365       2.228530    
  2.3457000E-03  2.3652499E-03   54.49922       3.137763    
  2.3652499E-03  2.3852000E-03   60.46251       3.050628    
  2.3852000E-03  2.4251300E-03   56.48523       2.186457    
  2.4251300E-03  2.4659701E-03   57.99140       2.230420    
  2.4659701E-03  2.5923999E-03   50.38598       1.328098    
  2.5923999E-03  2.7253199E-03   47.29620       1.339372    
  2.7253199E-03  2.8650500E-03   43.01870       1.329501    
  2.8650500E-03  3.0119400E-03   39.70701       1.418776    
  3.0119400E-03  3.0881900E-03   39.50176       1.942848    
  3.0881900E-03  3.1663701E-03   36.07980       2.001882    
  3.1663701E-03  3.2465300E-03   36.68380       2.048179    
  3.2465300E-03  3.3287101E-03   34.59471       2.087079    
  3.3287101E-03  3.4993801E-03   31.68287       1.501943    
  3.4993801E-03  3.6787901E-03   30.78136       1.435432    
  3.6787901E-03  3.8674099E-03   29.09642       1.464613    
  3.8674099E-03  4.0656999E-03   28.45747       1.484609    
  4.0656999E-03  4.2741499E-03   26.49498       1.533679    
  4.2741499E-03  4.4932901E-03   24.54057       1.591236    
  4.4932901E-03  4.6070400E-03   24.18734       2.111074    
  4.6070400E-03  4.7236700E-03   23.46494       2.152829    
  4.7236700E-03  4.8432499E-03   22.28379       2.128146    
  4.8432499E-03  4.9658502E-03   21.55347       2.138011    
  4.9658502E-03  5.2204598E-03   20.71842       1.583821    
  5.2204598E-03  5.4881200E-03   20.06468       1.595193    
  5.4881200E-03  5.7695000E-03   18.50921       1.653022    
  5.7695000E-03  5.9155500E-03   16.79755       2.277055    
  5.9155500E-03  6.0653100E-03   16.84512       2.259374    
  6.0653100E-03  6.2188501E-03   16.76357       2.380818    
  6.2188501E-03  6.3762800E-03   16.34976       2.323562    
  6.3762800E-03  6.5377001E-03   14.87478       2.391562    
  6.5377001E-03  6.5923799E-03   15.02667       3.992255    
  6.5923799E-03  6.6475999E-03   14.72555       3.915703    
  6.6475999E-03  6.7031998E-03   14.56490       4.113918    
  6.7031998E-03  6.8728901E-03   13.69509       2.397667    
  6.8728901E-03  7.0468802E-03   13.73217       2.269997    
  7.0468802E-03  7.2252699E-03   13.24708       2.420634    
  7.2252699E-03  7.4081798E-03   12.62185       2.392540    
  7.4081798E-03  7.5957198E-03   12.92240       2.402237    
  7.5957198E-03  7.7880099E-03   11.69629       2.424344    
  7.7880099E-03  7.9851598E-03   11.17760       2.458452    
  7.9851598E-03  8.1873098E-03   11.32626       2.358901    
  8.1873098E-03  8.3945701E-03   10.82495       2.513041    
  8.3945701E-03  8.6070802E-03   10.72630       2.515698    
  8.6070802E-03  8.8249696E-03   10.03613       2.507708    
  8.8249696E-03  9.0483697E-03   10.06639       2.507172    
  9.0483697E-03  9.2774397E-03   9.641539       2.481090    
  9.2774397E-03  9.5122904E-03   9.450380       2.591376    
  9.5122904E-03  9.7530996E-03   9.055821       2.504760    
  9.7530996E-03  9.9999998E-03   8.428814       2.552325    
  9.9999998E-03  1.0253200E-02   8.573056       2.565825    
  1.0253200E-02  1.0512700E-02   7.943269       2.777939    
  1.0512700E-02  1.0778800E-02   7.914058       2.547830    
  1.0778800E-02  1.1051700E-02   7.686700       2.630777    
  1.1051700E-02  1.1331500E-02   7.034951       2.625668    
  1.1331500E-02  1.1618300E-02   7.204953       2.741141    
  1.1618300E-02  1.1912500E-02   6.510568       2.642382    
  1.1912500E-02  1.2214000E-02   6.816329       2.583944    
  1.2214000E-02  1.2523200E-02   6.652707       2.641222    
  1.2523200E-02  1.2840200E-02   6.283771       2.682786    
  1.2840200E-02  1.3165300E-02   5.960368       2.617119    
  1.3165300E-02  1.3498600E-02   6.126774       2.739874    
  1.3498600E-02  1.3840300E-02   5.700107       2.697596    
  1.3840300E-02  1.4190700E-02   5.831697       2.754037    
  1.4190700E-02  1.4549900E-02   5.600312       2.731905    
  1.4549900E-02  1.4918300E-02   5.367732       2.704917    
  1.4918300E-02  1.5295900E-02   5.178083       2.733310    
  1.5295900E-02  1.5683100E-02   4.944556       2.840242    
  1.5683100E-02  1.6080100E-02   4.766667       2.933297    
  1.6080100E-02  1.6487200E-02   4.764616       2.796641    
  1.6487200E-02  1.6904600E-02   4.508478       2.847336    
  1.6904600E-02  1.7332500E-02   4.281590       2.890095    
  1.7332500E-02  1.7771300E-02   4.218553       2.838918    
  1.7771300E-02  1.8221200E-02   4.243424       2.891739    
  1.8221200E-02  1.8682500E-02   4.061676       2.913064    
  1.8682500E-02  1.9155400E-02   3.853313       3.040837    
  1.9155400E-02  1.9640300E-02   3.646451       3.065075    
  1.9640300E-02  2.0000000E-02   3.581672       3.522652    
