 # Detector n:            1   HeIInflux 
 # N. of energy intervals         260
  1.0000100E-14  2.0000000E-13  7.6835578E+10   1.045136    
  2.0000000E-13  2.9297300E-13  1.7306614E+11   1.041231    
  2.9297300E-13  4.2916701E-13  2.4924765E+11  0.6965919    
  4.2916701E-13  6.2867300E-13  3.5041028E+11  0.4923368    
  6.2867300E-13  9.2092198E-13  4.8226717E+11  0.3493777    
  9.2092198E-13  1.3490300E-12  6.4694170E+11  0.2521722    
  1.3490300E-12  1.9761499E-12  8.3719769E+11  0.1873512    
  1.9761499E-12  2.8947901E-12  1.0517280E+12  0.1459276    
  2.8947901E-12  4.2404799E-12  1.2515268E+12  0.1171844    
  4.2404799E-12  6.2117499E-12  1.3888607E+12  9.5103987E-02
  6.2117499E-12  9.0993801E-12  1.4146275E+12  8.4982291E-02
  9.0993801E-12  1.3329400E-11  1.2837907E+12  7.7801824E-02
  1.3329400E-11  1.9525799E-11  1.0099679E+12  7.5088494E-02
  1.9525799E-11  2.8602700E-11  6.6670546E+11  7.3634990E-02
  2.8602700E-11  4.1899099E-11  3.6968550E+11  7.8321405E-02
  4.1899099E-11  6.1376598E-11  1.8481154E+11  8.7590270E-02
  6.1376598E-11  8.9908601E-11  8.4236296E+10  9.7023636E-02
  8.9908601E-11  1.3170399E-10  3.2663560E+10  0.1225007    
  1.3170399E-10  1.9292901E-10  1.2005405E+10  0.1638393    
  1.9292901E-10  2.8261499E-10  5.4686664E+09  0.1942941    
  2.8261499E-10  4.1399401E-10  3.1781972E+09  0.2103586    
  4.1399401E-10  5.3157900E-10  2.2278518E+09  0.2649677    
  5.3157900E-10  6.2506200E-10  1.7787265E+09  0.3324822    
  6.2506200E-10  6.8256001E-10  1.5499561E+09  0.4411838    
  6.8256001E-10  8.3368101E-10  1.3351508E+09  0.2886609    
  8.3368101E-10  8.7642499E-10  1.1616364E+09  0.5792699    
  8.7642499E-10  1.1253500E-09  9.8709312E+08  0.2701839    
  1.1253500E-09  1.4449800E-09  7.5349523E+08  0.2739226    
  1.4449800E-09  1.8553900E-09  5.8444621E+08  0.2683569    
  1.8553900E-09  2.3823701E-09  4.4661552E+08  0.2841394    
  2.3823701E-09  3.0590199E-09  3.4699629E+08  0.2798131    
  3.0590199E-09  3.9278598E-09  2.6648606E+08  0.2767634    
  3.9278598E-09  5.0434799E-09  2.0711840E+08  0.2801808    
  5.0434799E-09  6.4759500E-09  1.6083038E+08  0.2778608    
  6.4759500E-09  8.3152898E-09  1.2359682E+08  0.2797644    
  8.3152898E-09  1.0677000E-08  9.6622640E+07  0.2831375    
  1.0677000E-08  1.3709600E-08  7.4160584E+07  0.2852958    
  1.3709600E-08  1.7603501E-08  5.7786276E+07  0.2876538    
  1.7603501E-08  2.2603301E-08  4.4448720E+07  0.2989760    
  2.2603301E-08  2.9023200E-08  3.4655928E+07  0.2850214    
  2.9023200E-08  3.7266499E-08  2.6665280E+07  0.2849198    
  3.7266499E-08  4.7851199E-08  2.0616276E+07  0.2906471    
  4.7851199E-08  6.1442101E-08  1.5822557E+07  0.2857804    
  6.1442101E-08  7.8893301E-08  1.2252574E+07  0.2898559    
  7.8893301E-08  1.0130100E-07   9462401.      0.2931235    
  1.0130100E-07  1.3007300E-07   7261132.      0.2927496    
  1.3007300E-07  1.6701701E-07   5586994.      0.3084082    
  1.6701701E-07  2.1445400E-07   4294728.      0.3105747    
  2.1445400E-07  2.7536399E-07   3285772.      0.3058680    
  2.7536399E-07  3.5357499E-07   2555635.      0.3136320    
  3.5357499E-07  4.5399901E-07   1907708.      0.3256533    
  4.5399901E-07  5.8294700E-07   1476183.      0.3021628    
  5.8294700E-07  7.4851800E-07   1133715.      0.3134958    
  7.4851800E-07  9.6111603E-07   872654.6      0.3131804    
  9.6111603E-07  1.2341000E-06   659608.5      0.3128771    
  1.2341000E-06  1.3638900E-06   547176.0      0.4988298    
  1.3638900E-06  1.5073300E-06   488661.9      0.5128466    
  1.5073300E-06  1.5846100E-06   448500.6      0.7253317    
  1.5846100E-06  1.6658601E-06   431332.6      0.7026217    
  1.6658601E-06  1.8410600E-06   399715.6      0.4912992    
  1.8410600E-06  2.0346799E-06   375057.0      0.4978918    
  2.0346799E-06  2.2486699E-06   294351.3      0.5241204    
  2.2486699E-06  2.4851699E-06   282729.0      0.5104756    
  2.4851699E-06  2.6125899E-06   252679.9      0.7098762    
  2.6125899E-06  2.7465401E-06   234359.3      0.7084945    
  2.7465401E-06  2.8634900E-06   232811.0      0.8067912    
  2.8634900E-06  3.0353899E-06   220619.5      0.6782901    
  3.0353899E-06  3.3546301E-06   202826.4      0.5154284    
  3.3546301E-06  3.7074401E-06   183449.5      0.5039336    
  3.7074401E-06  4.0973500E-06   163762.7      0.5355108    
  4.0973500E-06  4.3074201E-06   150007.4      0.7650241    
  4.3074201E-06  4.5282700E-06   139964.2      0.7567381    
  4.5282700E-06  5.0045101E-06   130130.2      0.5242386    
  5.0045101E-06  5.5308401E-06   129961.4      0.4936162    
  5.5308401E-06  6.2672698E-06   86198.67      0.5263817    
  6.2672698E-06  7.1017398E-06   87452.60      0.5056406    
  7.1017398E-06  8.0473301E-06   76257.66      0.5077258    
  8.0473301E-06  9.1188203E-06   66584.96      0.4880622    
  9.1188203E-06  1.0333000E-05   57252.57      0.4969185    
  1.0333000E-05  1.1708800E-05   49219.09      0.5098111    
  1.1708800E-05  1.3267800E-05   43188.46      0.5132337    
  1.3267800E-05  1.5034400E-05   36530.82      0.5368073    
  1.5034400E-05  1.7036200E-05   31979.11      0.5375441    
  1.7036200E-05  1.9304500E-05   27621.72      0.5488861    
  1.9304500E-05  2.1334799E-05   23907.27      0.6182328    
  2.1334799E-05  2.1874899E-05   22531.96       1.177598    
  2.1874899E-05  2.3578599E-05   21448.02      0.6795510    
  2.3578599E-05  2.4175501E-05   19967.15       1.175418    
  2.4175501E-05  2.4787500E-05   19445.33       1.168732    
  2.4787500E-05  2.6058400E-05   18969.01      0.8485500    
  2.6058400E-05  2.8087899E-05   18512.65      0.7112669    
  2.8087899E-05  3.1827800E-05   19532.82      0.4914097    
  3.1827800E-05  3.4306700E-05   11762.88      0.7607567    
  3.4306700E-05  3.5175199E-05   5747.236       1.839022    
  3.5175199E-05  3.6065601E-05   5280.400       1.824073    
  3.6065601E-05  4.0867701E-05   7419.799      0.7098858    
  4.0867701E-05  4.6309200E-05   8656.586      0.6104054    
  4.6309200E-05  5.2475199E-05   7954.074      0.5995989    
  5.2475199E-05  5.6562199E-05   6922.938      0.7519388    
  5.6562199E-05  5.9462200E-05   6681.778      0.9257965    
  5.9462200E-05  6.2510902E-05   6352.131      0.9643283    
  6.2510902E-05  6.7379500E-05   6191.543      0.7518627    
  6.7379500E-05  7.6350902E-05   6062.181      0.5747893    
  7.6350902E-05  8.6516899E-05   4247.368      0.6624286    
  8.6516899E-05  9.8036500E-05   2394.341      0.8101243    
  9.8036500E-05  1.1109000E-04   3036.255      0.6705397    
  1.1109000E-04  1.1678600E-04   3024.214      0.9813659    
  1.1678600E-04  1.2277300E-04   2003.365       1.142743    
  1.2277300E-04  1.2906799E-04   3056.345      0.9130383    
  1.2906799E-04  1.3568600E-04   3035.161      0.9260160    
  1.3568600E-04  1.4264201E-04   2183.850       1.042398    
  1.4264201E-04  1.4995600E-04   1638.037       1.144088    
  1.4995600E-04  1.5764400E-04   1499.727       1.171752    
  1.5764400E-04  1.6163501E-04   1211.025       1.848240    
  1.6163501E-04  1.6572700E-04   1492.818       1.561167    
  1.6572700E-04  1.6992200E-04   1567.857       1.541327    
  1.6992200E-04  1.7422400E-04   1579.237       1.530347    
  1.7422400E-04  1.8315599E-04   1595.178       1.152097    
  1.8315599E-04  1.9254700E-04   1614.301       1.051588    
  1.9254700E-04  2.0241900E-04   1445.495       1.079671    
  2.0241900E-04  2.1279699E-04   1087.406       1.202254    
  2.1279699E-04  2.2370800E-04   1118.232       1.076077    
  2.2370800E-04  2.3517800E-04   1126.787       1.103450    
  2.3517800E-04  2.4723500E-04   1125.400       1.093030    
  2.4723500E-04  2.5991100E-04   1118.038       1.048562    
  2.5991100E-04  2.7323700E-04   1194.389      0.9991406    
  2.7323700E-04  2.8015400E-04   1020.270       1.470237    
  2.8015400E-04  2.8724599E-04   810.4630       1.647874    
  2.8724599E-04  2.9451799E-04   830.1652       1.607198    
  2.9451799E-04  3.0197401E-04   831.2269       1.585390    
  3.0197401E-04  3.0961799E-04   828.6913       1.523000    
  3.0961799E-04  3.1745600E-04   734.6303       1.650956    
  3.1745600E-04  3.3373301E-04   776.4471       1.121594    
  3.3373301E-04  3.5084400E-04   759.4650       1.040086    
  3.5084400E-04  3.6883200E-04   644.2554       1.130224    
  3.6883200E-04  3.8774201E-04   599.5002       1.101819    
  3.8774201E-04  4.0762199E-04   568.0894       1.156832    
  4.0762199E-04  4.2852099E-04   475.5964       1.238017    
  4.2852099E-04  4.5049199E-04   434.9754       1.239331    
  4.5049199E-04  4.7358900E-04   427.6060       1.229044    
  4.7358900E-04  4.9787102E-04   427.9590       1.180983    
  4.9787102E-04  5.1047403E-04   424.7409       1.619387    
  5.1047403E-04  5.2339700E-04   408.1031       1.674307    
  5.2339700E-04  5.3664698E-04   334.1317       1.733484    
  5.3664698E-04  5.5023201E-04   349.8210       1.647084    
  5.5023201E-04  5.7844300E-04   328.7174       1.195723    
  5.7844300E-04  6.0810102E-04   306.0348       1.216289    
  6.0810102E-04  6.3927902E-04   274.5446       1.228622    
  6.3927902E-04  6.7205500E-04   233.4666       1.232284    
  6.7205500E-04  7.0651202E-04   231.4196       1.218563    
  7.0651202E-04  7.4273598E-04   200.1365       1.278982    
  7.4273598E-04  7.8081700E-04   175.3500       1.268439    
  7.8081700E-04  8.2085002E-04   144.2052       1.371882    
  8.2085002E-04  8.6293602E-04   127.6346       1.339193    
  8.6293602E-04  9.0717903E-04   114.0307       1.274315    
  9.0717903E-04  9.5369201E-04   103.8532       1.281457    
  9.5369201E-04  9.6163998E-04   92.41753       3.028221    
  9.6163998E-04  9.7783399E-04   92.01173       2.233346    
  9.7783399E-04  1.0025901E-03   89.33452       1.849746    
  1.0025901E-03  1.0539900E-03   82.76124       1.286544    
  1.0539900E-03  1.1080300E-03   82.55466       1.220268    
  1.1080300E-03  1.1648400E-03   75.30841       1.270543    
  1.1648400E-03  1.1943300E-03   70.93677       1.788504    
  1.1943300E-03  1.2245600E-03   73.40154       1.691358    
  1.2245600E-03  1.2873500E-03   73.69225       1.261195    
  1.2873500E-03  1.3533500E-03   71.50266       1.245931    
  1.3533500E-03  1.4227401E-03   74.43501       1.216767    
  1.4227401E-03  1.4956900E-03   71.58404       1.260780    
  1.4956900E-03  1.5335500E-03   71.36305       1.682928    
  1.5335500E-03  1.5723699E-03   69.41440       1.737255    
  1.5723699E-03  1.6121800E-03   68.22254       1.799894    
  1.6121800E-03  1.6529900E-03   68.34779       1.736471    
  1.6529900E-03  1.7377400E-03   67.20197       1.264631    
  1.7377400E-03  1.8268300E-03   65.26041       1.276057    
  1.8268300E-03  1.8730800E-03   65.66618       1.841130    
  1.8730800E-03  1.9205000E-03   62.26935       1.848796    
  1.9205000E-03  1.9691200E-03   61.09985       1.782042    
  1.9691200E-03  2.0189700E-03   62.71187       1.805552    
  2.0189700E-03  2.1224800E-03   58.76746       1.337168    
  2.1224800E-03  2.2313001E-03   57.12326       1.317732    
  2.2313001E-03  2.2688799E-03   55.21307       2.282108    
  2.2688799E-03  2.3068599E-03   53.88552       2.284000    
  2.3068599E-03  2.3457000E-03   53.82645       2.331329    
  2.3457000E-03  2.3652499E-03   54.87508       3.224601    
  2.3652499E-03  2.3852000E-03   58.58454       3.145391    
  2.3852000E-03  2.4251300E-03   52.61304       2.304344    
  2.4251300E-03  2.4659701E-03   53.32375       2.277886    
  2.4659701E-03  2.5923999E-03   45.47560       1.422433    
  2.5923999E-03  2.7253199E-03   43.99821       1.412375    
  2.7253199E-03  2.8650500E-03   39.87126       1.523917    
  2.8650500E-03  3.0119400E-03   37.43267       1.497501    
  3.0119400E-03  3.0881900E-03   35.66898       2.054880    
  3.0881900E-03  3.1663701E-03   34.65799       2.126337    
  3.1663701E-03  3.2465300E-03   32.55035       2.176512    
  3.2465300E-03  3.3287101E-03   30.14499       2.181417    
  3.3287101E-03  3.4993801E-03   29.01294       1.546383    
  3.4993801E-03  3.6787901E-03   27.76825       1.465054    
  3.6787901E-03  3.8674099E-03   26.46587       1.600238    
  3.8674099E-03  4.0656999E-03   25.24672       1.607676    
  4.0656999E-03  4.2741499E-03   24.48292       1.591304    
  4.2741499E-03  4.4932901E-03   22.34707       1.661474    
  4.4932901E-03  4.6070400E-03   22.13159       2.285173    
  4.6070400E-03  4.7236700E-03   20.92346       2.322203    
  4.7236700E-03  4.8432499E-03   19.86769       2.360551    
  4.8432499E-03  4.9658502E-03   20.01609       2.288402    
  4.9658502E-03  5.2204598E-03   18.45775       1.735043    
  5.2204598E-03  5.4881200E-03   17.31458       1.605841    
  5.4881200E-03  5.7695000E-03   16.21291       1.748989    
  5.7695000E-03  5.9155500E-03   15.88727       2.402571    
  5.9155500E-03  6.0653100E-03   14.33072       2.541360    
  6.0653100E-03  6.2188501E-03   14.75026       2.436102    
  6.2188501E-03  6.3762800E-03   14.18725       2.392822    
  6.3762800E-03  6.5377001E-03   14.03731       2.523098    
  6.5377001E-03  6.5923799E-03   13.34466       4.090474    
  6.5923799E-03  6.6475999E-03   12.75902       4.329503    
  6.6475999E-03  6.7031998E-03   13.33811       4.322484    
  6.7031998E-03  6.8728901E-03   12.68895       2.437964    
  6.8728901E-03  7.0468802E-03   12.38063       2.695923    
  7.0468802E-03  7.2252699E-03   11.53867       2.648970    
  7.2252699E-03  7.4081798E-03   11.32075       2.596860    
  7.4081798E-03  7.5957198E-03   10.47508       2.717346    
  7.5957198E-03  7.7880099E-03   10.58298       2.546045    
  7.7880099E-03  7.9851598E-03   10.37181       2.587053    
  7.9851598E-03  8.1873098E-03   9.251326       2.827808    
  8.1873098E-03  8.3945701E-03   9.050083       2.698403    
  8.3945701E-03  8.6070802E-03   8.748947       2.793043    
  8.6070802E-03  8.8249696E-03   8.787160       2.769221    
  8.8249696E-03  9.0483697E-03   8.372983       2.668158    
  9.0483697E-03  9.2774397E-03   7.960015       2.692031    
  9.2774397E-03  9.5122904E-03   7.857481       2.859210    
  9.5122904E-03  9.7530996E-03   7.339651       2.791479    
  9.7530996E-03  9.9999998E-03   7.569032       2.943493    
  9.9999998E-03  1.0253200E-02   6.903390       2.745024    
  1.0253200E-02  1.0512700E-02   6.656014       2.655307    
  1.0512700E-02  1.0778800E-02   6.692531       2.716496    
  1.0778800E-02  1.1051700E-02   6.350000       2.844307    
  1.1051700E-02  1.1331500E-02   6.002944       2.819276    
  1.1331500E-02  1.1618300E-02   5.980312       2.791829    
  1.1618300E-02  1.1912500E-02   5.556554       2.942624    
  1.1912500E-02  1.2214000E-02   5.827123       2.863835    
  1.2214000E-02  1.2523200E-02   5.660661       2.976382    
  1.2523200E-02  1.2840200E-02   5.291737       2.981421    
  1.2840200E-02  1.3165300E-02   4.920128       3.036019    
  1.3165300E-02  1.3498600E-02   4.959172       2.876487    
  1.3498600E-02  1.3840300E-02   4.846916       2.887577    
  1.3840300E-02  1.4190700E-02   4.778071       2.908781    
  1.4190700E-02  1.4549900E-02   4.569714       2.884736    
  1.4549900E-02  1.4918300E-02   4.444788       2.923965    
  1.4918300E-02  1.5295900E-02   4.275502       3.126453    
  1.5295900E-02  1.5683100E-02   4.087013       3.086848    
  1.5683100E-02  1.6080100E-02   3.930660       3.027891    
  1.6080100E-02  1.6487200E-02   3.835218       3.041137    
  1.6487200E-02  1.6904600E-02   3.858961       3.017002    
  1.6904600E-02  1.7332500E-02   3.520416       3.037539    
  1.7332500E-02  1.7771300E-02   3.384548       3.242844    
  1.7771300E-02  1.8221200E-02   3.554409       3.221216    
  1.8221200E-02  1.8682500E-02   3.227248       3.149515    
  1.8682500E-02  1.9155400E-02   3.196564       3.329561    
  1.9155400E-02  1.9640300E-02   2.886888       3.201138    
  1.9640300E-02  2.0000000E-02   2.821176       3.828144    
