 # Detector n:            1   HeIInflux 
 # N. of energy intervals         260
  1.0000100E-14  2.0000000E-13  1.5514145E+10   42.60640    
  2.0000000E-13  2.9297300E-13  3.4912731E+10   25.52718    
  2.9297300E-13  4.2916701E-13  5.1168756E+10   12.16325    
  4.2916701E-13  6.2867300E-13  7.4739548E+10   17.07584    
  6.2867300E-13  9.2092198E-13  1.0907555E+11   11.73340    
  9.2092198E-13  1.3490300E-12  1.5750283E+11   4.769881    
  1.3490300E-12  1.9761499E-12  2.4176866E+11   6.308403    
  1.9761499E-12  2.8947901E-12  3.0640233E+11   3.824409    
  2.8947901E-12  4.2404799E-12  4.0044551E+11   3.463229    
  4.2404799E-12  6.2117499E-12  4.5019893E+11   3.017981    
  6.2117499E-12  9.0993801E-12  5.0692994E+11   2.814844    
  9.0993801E-12  1.3329400E-11  4.7639901E+11   1.079115    
  1.3329400E-11  1.9525799E-11  3.7236946E+11   1.933207    
  1.9525799E-11  2.8602700E-11  2.2878994E+11   1.284747    
  2.8602700E-11  4.1899099E-11  1.0830732E+11   1.264216    
  4.1899099E-11  6.1376598E-11  3.9422927E+10   1.429778    
  6.1376598E-11  8.9908601E-11  1.2853642E+10   2.734962    
  8.9908601E-11  1.3170399E-10  3.6881874E+09   1.791580    
  1.3170399E-10  1.9292901E-10  1.6106337E+09   2.594902    
  1.9292901E-10  2.8261499E-10  8.6704576E+08   1.310979    
  2.8261499E-10  4.1399401E-10  5.4348109E+08   1.887327    
  4.1399401E-10  5.3157900E-10  3.8649862E+08   1.871235    
  5.3157900E-10  6.2506200E-10  3.1021062E+08   2.098838    
  6.2506200E-10  6.8256001E-10  2.6707640E+08   4.880845    
  6.8256001E-10  8.3368101E-10  2.2406803E+08   3.813811    
  8.3368101E-10  8.7642499E-10  2.0176867E+08   9.667487    
  8.7642499E-10  1.1253500E-09  1.6678125E+08   2.260129    
  1.1253500E-09  1.4449800E-09  1.2754654E+08   2.067232    
  1.4449800E-09  1.8553900E-09  9.8548896E+07  0.3259356    
  1.8553900E-09  2.3823701E-09  7.4024592E+07   1.769241    
  2.3823701E-09  3.0590199E-09  5.7963360E+07   1.935132    
  3.0590199E-09  3.9278598E-09  4.4456776E+07   2.916252    
  3.9278598E-09  5.0434799E-09  3.2115254E+07   1.589212    
  5.0434799E-09  6.4759500E-09  2.6142300E+07   2.270940    
  6.4759500E-09  8.3152898E-09  2.0745826E+07   1.050508    
  8.3152898E-09  1.0677000E-08  1.5484745E+07   1.740004    
  1.0677000E-08  1.3709600E-08  1.1384591E+07   1.610308    
  1.3709600E-08  1.7603501E-08   9297761.       1.450193    
  1.7603501E-08  2.2603301E-08   6793953.       5.352040    
  2.2603301E-08  2.9023200E-08   4968636.       1.251737    
  2.9023200E-08  3.7266499E-08   3964820.       2.367879    
  3.7266499E-08  4.7851199E-08   3014152.       2.531393    
  4.7851199E-08  6.1442101E-08   2322678.       1.854286    
  6.1442101E-08  7.8893301E-08   1730348.       1.685570    
  7.8893301E-08  1.0130100E-07   1341844.       2.503227    
  1.0130100E-07  1.3007300E-07   1023271.       1.485473    
  1.3007300E-07  1.6701701E-07   787704.1      0.7642249    
  1.6701701E-07  2.1445400E-07   577169.1       2.799591    
  2.1445400E-07  2.7536399E-07   438898.2       2.306357    
  2.7536399E-07  3.5357499E-07   331860.6      0.6241920    
  3.5357499E-07  4.5399901E-07   255130.0       2.685376    
  4.5399901E-07  5.8294700E-07   190377.4       2.764566    
  5.8294700E-07  7.4851800E-07   142453.1      0.7003642    
  7.4851800E-07  9.6111603E-07   108231.9      0.6916256    
  9.6111603E-07  1.2341000E-06   79249.74       2.916710    
  1.2341000E-06  1.3638900E-06   65650.09       4.505680    
  1.3638900E-06  1.5073300E-06   58432.68       6.380134    
  1.5073300E-06  1.5846100E-06   52959.82       8.884740    
  1.5846100E-06  1.6658601E-06   49472.55       6.697640    
  1.6658601E-06  1.8410600E-06   42465.23       1.336943    
  1.8410600E-06  2.0346799E-06   40757.11       6.901093    
  2.0346799E-06  2.2486699E-06   33660.38       6.462347    
  2.2486699E-06  2.4851699E-06   31248.27       7.937449    
  2.4851699E-06  2.6125899E-06   29582.83       3.039124    
  2.6125899E-06  2.7465401E-06   27199.40       4.747133    
  2.7465401E-06  2.8634900E-06   25431.27       10.16969    
  2.8634900E-06  3.0353899E-06   21949.55       7.293619    
  3.0353899E-06  3.3546301E-06   20202.40       9.486521    
  3.3546301E-06  3.7074401E-06   18636.95       5.573796    
  3.7074401E-06  4.0973500E-06   18246.10       6.018216    
  4.0973500E-06  4.3074201E-06   15375.13       4.668542    
  4.3074201E-06  4.5282700E-06   14171.13       6.902510    
  4.5282700E-06  5.0045101E-06   13147.95       2.587755    
  5.0045101E-06  5.5308401E-06   12477.05       3.921995    
  5.5308401E-06  6.2672698E-06   9289.289       4.547377    
  6.2672698E-06  7.1017398E-06   8808.396       3.907405    
  7.1017398E-06  8.0473301E-06   6978.960       6.506234    
  8.0473301E-06  9.1188203E-06   7023.823       1.522688    
  9.1188203E-06  1.0333000E-05   5845.275       2.094788    
  1.0333000E-05  1.1708800E-05   4596.870       2.344993    
  1.1708800E-05  1.3267800E-05   4062.052       8.894864    
  1.3267800E-05  1.5034400E-05   3582.754       8.377622    
  1.5034400E-05  1.7036200E-05   3030.551       5.520981    
  1.7036200E-05  1.9304500E-05   2810.360       6.401254    
  1.9304500E-05  2.1334799E-05   2074.494       9.723009    
  2.1334799E-05  2.1874899E-05   2173.568       7.240609    
  2.1874899E-05  2.3578599E-05   1711.525       5.001134    
  2.3578599E-05  2.4175501E-05   1653.297       15.09779    
  2.4175501E-05  2.4787500E-05   1811.963       5.972219    
  2.4787500E-05  2.6058400E-05   1649.484       10.50640    
  2.6058400E-05  2.8087899E-05   1618.250       7.612223    
  2.8087899E-05  3.1827800E-05   1389.411       7.370265    
  3.1827800E-05  3.4306700E-05   935.0093       8.960611    
  3.4306700E-05  3.5175199E-05   826.1179       18.07555    
  3.5175199E-05  3.6065601E-05   745.9554       12.84177    
  3.6065601E-05  4.0867701E-05   792.1858       6.924715    
  4.0867701E-05  4.6309200E-05   833.1753       8.632708    
  4.6309200E-05  5.2475199E-05   586.7271       10.86104    
  5.2475199E-05  5.6562199E-05   583.7872       5.046602    
  5.6562199E-05  5.9462200E-05   504.0427       8.411016    
  5.9462200E-05  6.2510902E-05   471.4525       10.75190    
  6.2510902E-05  6.7379500E-05   486.7318       8.060422    
  6.7379500E-05  7.6350902E-05   412.7636       5.573243    
  7.6350902E-05  8.6516899E-05   299.0754       8.420877    
  8.6516899E-05  9.8036500E-05   213.9777       2.069381    
  9.8036500E-05  1.1109000E-04   231.4707       7.593582    
  1.1109000E-04  1.1678600E-04   259.3597       8.827706    
  1.1678600E-04  1.2277300E-04   165.0368       14.75136    
  1.2277300E-04  1.2906799E-04   200.3979       12.82322    
  1.2906799E-04  1.3568600E-04   174.2641       13.48348    
  1.3568600E-04  1.4264201E-04   119.8013       19.37907    
  1.4264201E-04  1.4995600E-04   110.7383       25.61740    
  1.4995600E-04  1.5764400E-04   97.54270       20.34424    
  1.5764400E-04  1.6163501E-04   86.98141       28.18167    
  1.6163501E-04  1.6572700E-04   140.5251       11.65343    
  1.6572700E-04  1.6992200E-04   122.6158       22.86257    
  1.6992200E-04  1.7422400E-04   99.25712       17.64583    
  1.7422400E-04  1.8315599E-04   99.47559       17.88118    
  1.8315599E-04  1.9254700E-04   117.1067       21.58637    
  1.9254700E-04  2.0241900E-04   71.02042       12.46275    
  2.0241900E-04  2.1279699E-04   74.22723       9.107018    
  2.1279699E-04  2.2370800E-04   73.27851       9.480578    
  2.2370800E-04  2.3517800E-04   86.44615       18.75088    
  2.3517800E-04  2.4723500E-04   73.10142       19.79305    
  2.4723500E-04  2.5991100E-04   77.71082       12.35616    
  2.5991100E-04  2.7323700E-04   80.52483       10.07975    
  2.7323700E-04  2.8015400E-04   71.41075       19.32495    
  2.8015400E-04  2.8724599E-04   40.40979       32.69685    
  2.8724599E-04  2.9451799E-04   55.21296       25.49882    
  2.9451799E-04  3.0197401E-04   54.27934       5.225800    
  3.0197401E-04  3.0961799E-04   53.90818       4.472339    
  3.0961799E-04  3.1745600E-04   41.26701       21.41405    
  3.1745600E-04  3.3373301E-04   67.44904       15.32610    
  3.3373301E-04  3.5084400E-04   44.61566       15.11913    
  3.5084400E-04  3.6883200E-04   38.39228       11.25432    
  3.6883200E-04  3.8774201E-04   41.48730       9.860739    
  3.8774201E-04  4.0762199E-04   37.14832       9.646246    
  4.0762199E-04  4.2852099E-04   26.26258       6.364843    
  4.2852099E-04  4.5049199E-04   32.82777       18.17534    
  4.5049199E-04  4.7358900E-04   20.98530       16.38420    
  4.7358900E-04  4.9787102E-04   32.98156       5.546692    
  4.9787102E-04  5.1047403E-04   31.59744       28.00661    
  5.1047403E-04  5.2339700E-04   29.12727       16.56421    
  5.2339700E-04  5.3664698E-04   22.31478       12.72585    
  5.3664698E-04  5.5023201E-04   19.10767       6.736739    
  5.5023201E-04  5.7844300E-04   24.09701       7.544030    
  5.7844300E-04  6.0810102E-04   20.32784       11.36887    
  6.0810102E-04  6.3927902E-04   18.09054       18.86169    
  6.3927902E-04  6.7205500E-04   15.69881       17.77669    
  6.7205500E-04  7.0651202E-04   16.93120       2.096453    
  7.0651202E-04  7.4273598E-04   14.77431       16.74715    
  7.4273598E-04  7.8081700E-04   13.38369       19.66540    
  7.8081700E-04  8.2085002E-04   8.980168       24.30893    
  8.2085002E-04  8.6293602E-04   8.915168       15.96698    
  8.6293602E-04  9.0717903E-04   9.294976       4.997444    
  9.0717903E-04  9.5369201E-04   6.209802       31.32123    
  9.5369201E-04  9.6163998E-04   8.386074       26.26915    
  9.6163998E-04  9.7783399E-04   4.511755       30.15849    
  9.7783399E-04  1.0025901E-03   8.241353       11.89087    
  1.0025901E-03  1.0539900E-03   6.134192       8.348433    
  1.0539900E-03  1.1080300E-03   3.927198       24.39733    
  1.1080300E-03  1.1648400E-03   5.866612       11.00099    
  1.1648400E-03  1.1943300E-03   5.560874       28.85000    
  1.1943300E-03  1.2245600E-03   8.257251       22.48075    
  1.2245600E-03  1.2873500E-03   7.531041       15.68520    
  1.2873500E-03  1.3533500E-03   5.015597       18.63888    
  1.3533500E-03  1.4227401E-03   7.050932       13.22044    
  1.4227401E-03  1.4956900E-03   6.316979       11.04250    
  1.4956900E-03  1.5335500E-03   6.496876       9.936874    
  1.5335500E-03  1.5723699E-03   6.275497       37.84701    
  1.5723699E-03  1.6121800E-03   3.134945       28.49599    
  1.6121800E-03  1.6529900E-03   7.372306       10.55673    
  1.6529900E-03  1.7377400E-03   4.925856       13.21766    
  1.7377400E-03  1.8268300E-03   5.228219       20.36188    
  1.8268300E-03  1.8730800E-03   5.601204       20.71499    
  1.8730800E-03  1.9205000E-03   4.090217       25.10903    
  1.9205000E-03  1.9691200E-03   4.021302       22.14738    
  1.9691200E-03  2.0189700E-03   3.838714       29.33604    
  2.0189700E-03  2.1224800E-03   3.061978       24.64530    
  2.1224800E-03  2.2313001E-03   4.589832       19.34099    
  2.2313001E-03  2.2688799E-03   1.537196       22.84245    
  2.2688799E-03  2.3068599E-03   2.294653       34.99592    
  2.3068599E-03  2.3457000E-03   6.079390       35.40769    
  2.3457000E-03  2.3652499E-03   3.763945       15.80728    
  2.3652499E-03  2.3852000E-03   2.996283       56.64959    
  2.3852000E-03  2.4251300E-03   2.537147       24.14929    
  2.4251300E-03  2.4659701E-03   2.523390       28.42781    
  2.4659701E-03  2.5923999E-03   2.836290       16.92449    
  2.5923999E-03  2.7253199E-03   2.293567       18.90282    
  2.7253199E-03  2.8650500E-03   3.021796       6.083445    
  2.8650500E-03  3.0119400E-03   2.294409       33.38285    
  3.0119400E-03  3.0881900E-03   1.091417       17.68836    
  3.0881900E-03  3.1663701E-03   1.715428       29.02385    
  3.1663701E-03  3.2465300E-03   1.499079       26.30317    
  3.2465300E-03  3.3287101E-03  0.8737228       47.61040    
  3.3287101E-03  3.4993801E-03   1.377914       19.57864    
  3.4993801E-03  3.6787901E-03   1.618325       21.08356    
  3.6787901E-03  3.8674099E-03   1.455932       32.73791    
  3.8674099E-03  4.0656999E-03   1.130520       20.22971    
  4.0656999E-03  4.2741499E-03   2.105674       13.53957    
  4.2741499E-03  4.4932901E-03  0.8241266       30.23448    
  4.4932901E-03  4.6070400E-03   1.890664       28.69168    
  4.6070400E-03  4.7236700E-03   1.779307       21.02695    
  4.7236700E-03  4.8432499E-03  0.9996267       38.27333    
  4.8432499E-03  4.9658502E-03   1.432304       14.44816    
  4.9658502E-03  5.2204598E-03  0.7809889       34.95371    
  5.2204598E-03  5.4881200E-03   1.057771       23.41895    
  5.4881200E-03  5.7695000E-03   1.050784       20.46603    
  5.7695000E-03  5.9155500E-03   1.697693       36.45948    
  5.9155500E-03  6.0653100E-03   1.180204       26.93451    
  6.0653100E-03  6.2188501E-03  0.9227532       46.63678    
  6.2188501E-03  6.3762800E-03  0.9551929       32.37924    
  6.3762800E-03  6.5377001E-03  0.8135975       35.19876    
  6.5377001E-03  6.5923799E-03   1.414675       50.52730    
  6.5923799E-03  6.6475999E-03  0.7716483       63.76898    
  6.6475999E-03  6.7031998E-03   1.161077       32.22785    
  6.7031998E-03  6.8728901E-03   1.016692       29.47333    
  6.8728901E-03  7.0468802E-03  0.9942863       41.34941    
  7.0468802E-03  7.2252699E-03   1.091894       30.35059    
  7.2252699E-03  7.4081798E-03  0.8127456       41.75724    
  7.4081798E-03  7.5957198E-03  0.7917730       37.64993    
  7.5957198E-03  7.7880099E-03  0.9550833       9.253421    
  7.7880099E-03  7.9851598E-03  0.4837644       16.87693    
  7.9851598E-03  8.1873098E-03  0.6722113       44.96867    
  8.1873098E-03  8.3945701E-03  0.5977792       25.59847    
  8.3945701E-03  8.6070802E-03  0.6112331       38.98247    
  8.6070802E-03  8.8249696E-03   1.064888       26.66791    
  8.8249696E-03  9.0483697E-03  0.7546571       8.441712    
  9.0483697E-03  9.2774397E-03  0.5255586       38.43188    
  9.2774397E-03  9.5122904E-03  0.6049922       34.00937    
  9.5122904E-03  9.7530996E-03  0.9210870       24.39120    
  9.7530996E-03  9.9999998E-03  0.4324557       35.78570    
  9.9999998E-03  1.0253200E-02  0.3425119       38.46618    
  1.0253200E-02  1.0512700E-02  0.6972882       20.88741    
  1.0512700E-02  1.0778800E-02  0.4155694       48.87913    
  1.0778800E-02  1.1051700E-02  0.4142076       43.44013    
  1.1051700E-02  1.1331500E-02  0.1455714       94.40351    
  1.1331500E-02  1.1618300E-02  0.2690169       38.21968    
  1.1618300E-02  1.1912500E-02  0.4216642       64.82215    
  1.1912500E-02  1.2214000E-02  0.3583708       36.47852    
  1.2214000E-02  1.2523200E-02  0.4592720       34.42725    
  1.2523200E-02  1.2840200E-02  0.5070965       16.27431    
  1.2840200E-02  1.3165300E-02  0.1731782       36.28710    
  1.3165300E-02  1.3498600E-02  9.8560356E-02   94.84609    
  1.3498600E-02  1.3840300E-02  0.3424726       11.38491    
  1.3840300E-02  1.4190700E-02  0.5266374       28.87961    
  1.4190700E-02  1.4549900E-02  0.2797352       42.57877    
  1.4549900E-02  1.4918300E-02  0.2897692       35.29150    
  1.4918300E-02  1.5295900E-02  0.3011515       31.74376    
  1.5295900E-02  1.5683100E-02  3.1853359E-02   73.44205    
  1.5683100E-02  1.6080100E-02  0.2736344       44.92361    
  1.6080100E-02  1.6487200E-02  0.4960998       20.26255    
  1.6487200E-02  1.6904600E-02  0.2476753       49.23052    
  1.6904600E-02  1.7332500E-02  0.4522338       44.78309    
  1.7332500E-02  1.7771300E-02  0.2594354       38.79314    
  1.7771300E-02  1.8221200E-02  0.2345479       39.81812    
  1.8221200E-02  1.8682500E-02  0.1425094       24.58418    
  1.8682500E-02  1.9155400E-02  0.1954975       34.03494    
  1.9155400E-02  1.9640300E-02  0.2297329       70.01005    
  1.9640300E-02  2.0000000E-02  0.1448605       25.91901    
