 # Detector n:  1  HeIInflux 
 # N. of energy intervals 260
  1.0000100E-14  2.0000000E-13  1.4447997E+10   14.33355    
  2.0000000E-13  2.9297300E-13  4.3622052E+10   12.81777    
  2.9297300E-13  4.2916701E-13  7.8494491E+10   15.61941    
  4.2916701E-13  6.2867300E-13  9.0297049E+10   10.00242    
  6.2867300E-13  9.2092198E-13  1.4644799E+11   9.074343    
  9.2092198E-13  1.3490300E-12  1.7055816E+11   5.551075    
  1.3490300E-12  1.9761499E-12  2.5351197E+11   4.728843    
  1.9761499E-12  2.8947901E-12  3.1817289E+11   1.696926    
  2.8947901E-12  4.2404799E-12  4.1127153E+11   1.917975    
  4.2404799E-12  6.2117499E-12  4.5747762E+11   1.071837    
  6.2117499E-12  9.0993801E-12  4.6498575E+11   1.301823    
  9.0993801E-12  1.3329400E-11  4.2681876E+11   1.026807    
  1.3329400E-11  1.9525799E-11  3.3199509E+11   1.198393    
  1.9525799E-11  2.8602700E-11  2.0625978E+11  0.6030313    
  2.8602700E-11  4.1899099E-11  9.8114757E+10   1.305560    
  4.1899099E-11  6.1376598E-11  4.3270930E+10   1.415942    
  6.1376598E-11  8.9908601E-11  2.1113072E+10   1.960220    
  8.9908601E-11  1.3170399E-10  1.1104055E+10   1.344522    
  1.3170399E-10  1.9292901E-10  6.7761521E+09   1.343688    
  1.9292901E-10  2.8261499E-10  4.2827267E+09  0.7316729    
  2.8261499E-10  4.1399401E-10  2.8155750E+09  0.9282229    
  4.1399401E-10  5.3157900E-10  2.0371360E+09   1.294544    
  5.3157900E-10  6.2506200E-10  1.6931654E+09   1.252899    
  6.2506200E-10  6.8256001E-10  1.4622945E+09   1.690189    
  6.8256001E-10  8.3368101E-10  1.2887423E+09  0.7282628    
  8.3368101E-10  8.7642499E-10  1.1110001E+09   2.714912    
  8.7642499E-10  1.1253500E-09  9.8274669E+08  0.8518030    
  1.1253500E-09  1.4449800E-09  7.5779392E+08   1.011603    
  1.4449800E-09  1.8553900E-09  5.9741805E+08   1.221293    
  1.8553900E-09  2.3823701E-09  4.6523315E+08  0.7934377    
  2.3823701E-09  3.0590199E-09  3.6455370E+08   1.067633    
  3.0590199E-09  3.9278598E-09  2.8861821E+08  0.9616289    
  3.9278598E-09  5.0434799E-09  2.1968629E+08  0.8825052    
  5.0434799E-09  6.4759500E-09  1.7274184E+08   1.048466    
  6.4759500E-09  8.3152898E-09  1.3652794E+08  0.7053029    
  8.3152898E-09  1.0677000E-08  1.0730629E+08   1.076215    
  1.0677000E-08  1.3709600E-08  8.4855928E+07  0.8591316    
  1.3709600E-08  1.7603501E-08  6.6040876E+07  0.7080520    
  1.7603501E-08  2.2603301E-08  5.1878684E+07  0.6951642    
  2.2603301E-08  2.9023200E-08  4.0661376E+07  0.6969810    
  2.9023200E-08  3.7266499E-08  3.0917000E+07   1.015722    
  3.7266499E-08  4.7851199E-08  2.4535770E+07  0.6678033    
  4.7851199E-08  6.1442101E-08  1.9270886E+07  0.8458813    
  6.1442101E-08  7.8893301E-08  1.5259811E+07   1.081177    
  7.8893301E-08  1.0130100E-07  1.1793726E+07  0.8524306    
  1.0130100E-07  1.3007300E-07   9133372.      0.9551750    
  1.3007300E-07  1.6701701E-07   7099829.       1.010133    
  1.6701701E-07  2.1445400E-07   5582468.       1.202204    
  2.1445400E-07  2.7536399E-07   4278296.      0.5675229    
  2.7536399E-07  3.5357499E-07   3363190.       1.021834    
  3.5357499E-07  4.5399901E-07   2594065.      0.7629595    
  4.5399901E-07  5.8294700E-07   2020556.      0.9806017    
  5.8294700E-07  7.4851800E-07   1547625.      0.7430723    
  7.4851800E-07  9.6111603E-07   1203932.      0.8563588    
  9.6111603E-07  1.2341000E-06   936349.7      0.5007253    
  1.2341000E-06  1.3638900E-06   770788.9       1.479868    
  1.3638900E-06  1.5073300E-06   707077.1       1.329800    
  1.5073300E-06  1.5846100E-06   656665.7       2.123334    
  1.5846100E-06  1.6658601E-06   599874.1       1.911193    
  1.6658601E-06  1.8410600E-06   564169.2       1.327243    
  1.8410600E-06  2.0346799E-06   509124.7      0.9341654    
  2.0346799E-06  2.2486699E-06   466278.2       1.744204    
  2.2486699E-06  2.4851699E-06   413590.3       1.346247    
  2.4851699E-06  2.6125899E-06   369582.9       1.774310    
  2.6125899E-06  2.7465401E-06   359674.9       1.877644    
  2.7465401E-06  2.8634900E-06   330086.7       1.814083    
  2.8634900E-06  3.0353899E-06   324719.9       1.528079    
  3.0353899E-06  3.3546301E-06   305356.4       1.399772    
  3.3546301E-06  3.7074401E-06   270328.9       1.555052    
  3.7074401E-06  4.0973500E-06   244897.1       1.378392    
  4.0973500E-06  4.3074201E-06   220235.9       2.028014    
  4.3074201E-06  4.5282700E-06   202505.7       2.229377    
  4.5282700E-06  5.0045101E-06   197570.2       1.213130    
  5.0045101E-06  5.5308401E-06   191010.1       1.168693    
  5.5308401E-06  6.2672698E-06   134642.8       1.657055    
  6.2672698E-06  7.1017398E-06   138231.4      0.6707813    
  7.1017398E-06  8.0473301E-06   119282.4       1.520161    
  8.0473301E-06  9.1188203E-06   102173.8      0.9746384    
  9.1188203E-06  1.0333000E-05   90332.09       1.366104    
  1.0333000E-05  1.1708800E-05   78218.56       1.193797    
  1.1708800E-05  1.3267800E-05   66890.36       1.529739    
  1.3267800E-05  1.5034400E-05   59195.46       1.362389    
  1.5034400E-05  1.7036200E-05   50344.99       1.413468    
  1.7036200E-05  1.9304500E-05   43541.89       1.246646    
  1.9304500E-05  2.1334799E-05   39245.25       1.431592    
  2.1334799E-05  2.1874899E-05   36705.72       2.844981    
  2.1874899E-05  2.3578599E-05   33776.96       2.276859    
  2.3578599E-05  2.4175501E-05   31530.88       3.441780    
  2.4175501E-05  2.4787500E-05   31148.35       2.730854    
  2.4787500E-05  2.6058400E-05   30653.90       2.121501    
  2.6058400E-05  2.8087899E-05   29789.00       1.844407    
  2.8087899E-05  3.1827800E-05   32559.12       1.350538    
  3.1827800E-05  3.4306700E-05   20300.49       1.556774    
  3.4306700E-05  3.5175199E-05   9916.573       4.741860    
  3.5175199E-05  3.6065601E-05   9004.960       2.662286    
  3.6065601E-05  4.0867701E-05   13164.24       2.151646    
  4.0867701E-05  4.6309200E-05   14541.75       1.606658    
  4.6309200E-05  5.2475199E-05   13009.35       1.881993    
  5.2475199E-05  5.6562199E-05   11591.71       2.215039    
  5.6562199E-05  5.9462200E-05   10835.79       2.768260    
  5.9462200E-05  6.2510902E-05   10051.40       2.556367    
  6.2510902E-05  6.7379500E-05   9818.769       2.059203    
  6.7379500E-05  7.6350902E-05   9396.302       1.807975    
  7.6350902E-05  8.6516899E-05   6944.112       1.665711    
  8.6516899E-05  9.8036500E-05   4196.334       1.457172    
  9.8036500E-05  1.1109000E-04   4885.062       1.345860    
  1.1109000E-04  1.1678600E-04   4693.447       2.840940    
  1.1678600E-04  1.2277300E-04   3188.860       3.510587    
  1.2277300E-04  1.2906799E-04   4740.284       2.885133    
  1.2906799E-04  1.3568600E-04   4913.656       2.346494    
  1.3568600E-04  1.4264201E-04   3728.090       1.089931    
  1.4264201E-04  1.4995600E-04   2660.441       2.796113    
  1.4995600E-04  1.5764400E-04   2477.857       4.007111    
  1.5764400E-04  1.6163501E-04   1901.936       4.398129    
  1.6163501E-04  1.6572700E-04   2442.015       1.914465    
  1.6572700E-04  1.6992200E-04   2288.568       4.670831    
  1.6992200E-04  1.7422400E-04   2522.776       4.521232    
  1.7422400E-04  1.8315599E-04   2529.188       2.239395    
  1.8315599E-04  1.9254700E-04   2519.283       3.115717    
  1.9254700E-04  2.0241900E-04   2394.406       2.509571    
  2.0241900E-04  2.1279699E-04   1807.024       3.663044    
  2.1279699E-04  2.2370800E-04   1751.965       2.237494    
  2.2370800E-04  2.3517800E-04   1733.775       4.540054    
  2.3517800E-04  2.4723500E-04   1736.236       2.230472    
  2.4723500E-04  2.5991100E-04   1720.669       2.802761    
  2.5991100E-04  2.7323700E-04   1879.603       2.732921    
  2.7323700E-04  2.8015400E-04   1535.602       3.804459    
  2.8015400E-04  2.8724599E-04   1151.853       4.743025    
  2.8724599E-04  2.9451799E-04   1110.137       5.737751    
  2.9451799E-04  3.0197401E-04   1276.135       3.742603    
  3.0197401E-04  3.0961799E-04   1257.909       3.007687    
  3.0961799E-04  3.1745600E-04   1051.907       3.772338    
  3.1745600E-04  3.3373301E-04   1145.237       3.260267    
  3.3373301E-04  3.5084400E-04   1114.911       3.033868    
  3.5084400E-04  3.6883200E-04   958.5066       3.419457    
  3.6883200E-04  3.8774201E-04   921.8425       2.909727    
  3.8774201E-04  4.0762199E-04   893.1553       2.500959    
  4.0762199E-04  4.2852099E-04   753.3368       3.660142    
  4.2852099E-04  4.5049199E-04   658.6724       4.333990    
  4.5049199E-04  4.7358900E-04   690.1810       3.367475    
  4.7358900E-04  4.9787102E-04   661.7459       2.187187    
  4.9787102E-04  5.1047403E-04   626.9398       5.444456    
  5.1047403E-04  5.2339700E-04   633.6758       5.942872    
  5.2339700E-04  5.3664698E-04   478.1674       4.202394    
  5.3664698E-04  5.5023201E-04   541.6039       4.452669    
  5.5023201E-04  5.7844300E-04   467.1847       3.118527    
  5.7844300E-04  6.0810102E-04   455.9283       2.889944    
  6.0810102E-04  6.3927902E-04   421.4232       3.837287    
  6.3927902E-04  6.7205500E-04   356.5500       3.774230    
  6.7205500E-04  7.0651202E-04   334.8517       3.334892    
  7.0651202E-04  7.4273598E-04   322.1646       2.568155    
  7.4273598E-04  7.8081700E-04   266.2841       3.330519    
  7.8081700E-04  8.2085002E-04   217.9654       2.982835    
  8.2085002E-04  8.6293602E-04   190.4958       3.042689    
  8.6293602E-04  9.0717903E-04   186.8707       4.847678    
  9.0717903E-04  9.5369201E-04   171.2795       4.319426    
  9.5369201E-04  9.6163998E-04   147.9284       8.844694    
  9.6163998E-04  9.7783399E-04   139.6659       8.549706    
  9.7783399E-04  1.0025901E-03   148.5567       5.448218    
  1.0025901E-03  1.0539900E-03   136.9858       6.070488    
  1.0539900E-03  1.1080300E-03   130.1160       3.482849    
  1.1080300E-03  1.1648400E-03   115.7389       4.793478    
  1.1648400E-03  1.1943300E-03   105.6751       3.092141    
  1.1943300E-03  1.2245600E-03   121.4403       4.840590    
  1.2245600E-03  1.2873500E-03   101.0212       2.664383    
  1.2873500E-03  1.3533500E-03   100.4249       3.998179    
  1.3533500E-03  1.4227401E-03   95.98119       3.944849    
  1.4227401E-03  1.4956900E-03   93.47974       4.645130    
  1.4956900E-03  1.5335500E-03   87.97945       6.526989    
  1.5335500E-03  1.5723699E-03   78.93673       6.193524    
  1.5723699E-03  1.6121800E-03   84.80923       10.42623    
  1.6121800E-03  1.6529900E-03   85.97005       5.888875    
  1.6529900E-03  1.7377400E-03   82.37381       3.719795    
  1.7377400E-03  1.8268300E-03   68.96030       4.537899    
  1.8268300E-03  1.8730800E-03   80.77268       6.751994    
  1.8730800E-03  1.9205000E-03   58.82051       7.119734    
  1.9205000E-03  1.9691200E-03   63.18637       7.057699    
  1.9691200E-03  2.0189700E-03   60.89615       6.706367    
  2.0189700E-03  2.1224800E-03   54.66855       5.957171    
  2.1224800E-03  2.2313001E-03   54.45161       5.080985    
  2.2313001E-03  2.2688799E-03   43.14679       11.22074    
  2.2688799E-03  2.3068599E-03   44.71922       5.416923    
  2.3068599E-03  2.3457000E-03   48.35920       12.41610    
  2.3457000E-03  2.3652499E-03   46.65042       9.290241    
  2.3652499E-03  2.3852000E-03   44.67455       14.74376    
  2.3852000E-03  2.4251300E-03   42.97123       12.71693    
  2.4251300E-03  2.4659701E-03   52.16026       5.980290    
  2.4659701E-03  2.5923999E-03   37.36330       5.609767    
  2.5923999E-03  2.7253199E-03   36.26397       6.287682    
  2.7253199E-03  2.8650500E-03   32.52009       4.512201    
  2.8650500E-03  3.0119400E-03   28.07401       6.589859    
  3.0119400E-03  3.0881900E-03   23.10227       11.08446    
  3.0881900E-03  3.1663701E-03   25.94867       8.541152    
  3.1663701E-03  3.2465300E-03   27.58868       8.123520    
  3.2465300E-03  3.3287101E-03   22.94335       8.141869    
  3.3287101E-03  3.4993801E-03   20.44930       7.191754    
  3.4993801E-03  3.6787901E-03   19.17963       5.828807    
  3.6787901E-03  3.8674099E-03   19.02255       6.657613    
  3.8674099E-03  4.0656999E-03   19.91947       7.774809    
  4.0656999E-03  4.2741499E-03   15.15469       9.100470    
  4.2741499E-03  4.4932901E-03   16.26898       5.747469    
  4.4932901E-03  4.6070400E-03   11.73682       10.61905    
  4.6070400E-03  4.7236700E-03   12.99380       12.26131    
  4.7236700E-03  4.8432499E-03   12.90875       9.082985    
  4.8432499E-03  4.9658502E-03   10.09108       10.76137    
  4.9658502E-03  5.2204598E-03   12.01247       6.289844    
  5.2204598E-03  5.4881200E-03   9.790579       7.679035    
  5.4881200E-03  5.7695000E-03   10.48266       8.281660    
  5.7695000E-03  5.9155500E-03   9.248381       10.64004    
  5.9155500E-03  6.0653100E-03   8.726169       7.909544    
  6.0653100E-03  6.2188501E-03   7.837415       14.08533    
  6.2188501E-03  6.3762800E-03   10.13581       8.861073    
  6.3762800E-03  6.5377001E-03   8.682817       8.279223    
  6.5377001E-03  6.5923799E-03   7.716686       20.45640    
  6.5923799E-03  6.6475999E-03   5.088921       24.87651    
  6.6475999E-03  6.7031998E-03   10.28656       16.53360    
  6.7031998E-03  6.8728901E-03   7.782696       10.04076    
  6.8728901E-03  7.0468802E-03   8.337165       10.19125    
  7.0468802E-03  7.2252699E-03   6.926064       6.915964    
  7.2252699E-03  7.4081798E-03   7.031297       10.53626    
  7.4081798E-03  7.5957198E-03   6.008300       12.04759    
  7.5957198E-03  7.7880099E-03   6.441134       12.81689    
  7.7880099E-03  7.9851598E-03   4.829114       13.41035    
  7.9851598E-03  8.1873098E-03   6.412049       11.27844    
  8.1873098E-03  8.3945701E-03   5.328088       13.77557    
  8.3945701E-03  8.6070802E-03   3.447625       19.15265    
  8.6070802E-03  8.8249696E-03   4.896638       11.82033    
  8.8249696E-03  9.0483697E-03   4.907885       9.067946    
  9.0483697E-03  9.2774397E-03   4.626579       13.11492    
  9.2774397E-03  9.5122904E-03   4.808848       9.690805    
  9.5122904E-03  9.7530996E-03   3.891782       14.42814    
  9.7530996E-03  9.9999998E-03   4.078850       16.29248    
  9.9999998E-03  1.0253200E-02   4.452613       13.40246    
  1.0253200E-02  1.0512700E-02   3.509594       10.73248    
  1.0512700E-02  1.0778800E-02   3.677102       13.63167    
  1.0778800E-02  1.1051700E-02   5.035662       14.41317    
  1.1051700E-02  1.1331500E-02   4.540718       11.54173    
  1.1331500E-02  1.1618300E-02   4.791194       10.51883    
  1.1618300E-02  1.1912500E-02   2.844308       11.51518    
  1.1912500E-02  1.2214000E-02   3.315349       14.75450    
  1.2214000E-02  1.2523200E-02   3.462559       12.97466    
  1.2523200E-02  1.2840200E-02   3.145677       17.24511    
  1.2840200E-02  1.3165300E-02   3.028353       14.45111    
  1.3165300E-02  1.3498600E-02   3.230591       15.21395    
  1.3498600E-02  1.3840300E-02   3.117537       13.64144    
  1.3840300E-02  1.4190700E-02   2.887476       10.61312    
  1.4190700E-02  1.4549900E-02   2.964156       8.158113    
  1.4549900E-02  1.4918300E-02   2.769344       9.382020    
  1.4918300E-02  1.5295900E-02   2.800131       5.747129    
  1.5295900E-02  1.5683100E-02   2.969303       15.60878    
  1.5683100E-02  1.6080100E-02   2.233819       14.21205    
  1.6080100E-02  1.6487200E-02   2.424498       13.06271    
  1.6487200E-02  1.6904600E-02   1.920108       12.65643    
  1.6904600E-02  1.7332500E-02   2.468917       11.71181    
  1.7332500E-02  1.7771300E-02   2.041954       12.42531    
  1.7771300E-02  1.8221200E-02   1.995678       13.35726    
  1.8221200E-02  1.8682500E-02   1.370857       19.45046    
  1.8682500E-02  1.9155400E-02   1.456983       17.75078    
  1.9155400E-02  1.9640300E-02   1.784807       13.76119    
  1.9640300E-02  2.0000000E-02   1.881933       14.20273    
