 # Detector n:            1   HeIIcoll  
 # N. of energy intervals         260
  1.0000100E-14  2.0000000E-13  3.4310607E+10   26.55667    
  2.0000000E-13  2.9297300E-13  8.3970056E+10   21.71513    
  2.9297300E-13  4.2916701E-13  1.6821200E+11   14.66468    
  4.2916701E-13  6.2867300E-13  1.9800397E+11   26.44806    
  6.2867300E-13  9.2092198E-13  2.2735708E+11   9.214440    
  9.2092198E-13  1.3490300E-12  3.6673300E+11   7.144956    
  1.3490300E-12  1.9761499E-12  5.1908080E+11   1.487809    
  1.9761499E-12  2.8947901E-12  6.4017577E+11   2.481525    
  2.8947901E-12  4.2404799E-12  8.1264122E+11  0.7065974    
  4.2404799E-12  6.2117499E-12  8.8724917E+11   3.189326    
  6.2117499E-12  9.0993801E-12  8.7880676E+11  0.4188890    
  9.0993801E-12  1.3329400E-11  8.2804382E+11   1.334475    
  1.3329400E-11  1.9525799E-11  6.4784682E+11   1.641235    
  1.9525799E-11  2.8602700E-11  3.9698806E+11  0.9782753    
  2.8602700E-11  4.1899099E-11  1.9862351E+11  0.9944008    
  4.1899099E-11  6.1376598E-11  7.8143488E+10   1.940706    
  6.1376598E-11  8.9908601E-11  3.1938478E+10   2.744008    
  8.9908601E-11  1.3170399E-10  1.2537490E+10   1.039867    
  1.3170399E-10  1.9292901E-10  4.4497208E+09   3.755730    
  1.9292901E-10  2.8261499E-10  2.3388831E+09   1.458751    
  2.8261499E-10  4.1399401E-10  1.3782493E+09   4.173199    
  4.1399401E-10  5.3157900E-10  9.9939763E+08   2.663604    
  5.3157900E-10  6.2506200E-10  7.8125747E+08   1.316769    
  6.2506200E-10  6.8256001E-10  6.4222400E+08   6.242402    
  6.8256001E-10  8.3368101E-10  5.8830432E+08   2.624038    
  8.3368101E-10  8.7642499E-10  4.9853622E+08   3.902514    
  8.7642499E-10  1.1253500E-09  4.2494822E+08   2.392216    
  1.1253500E-09  1.4449800E-09  3.2829469E+08   1.492299    
  1.4449800E-09  1.8553900E-09  2.5925077E+08   1.164961    
  1.8553900E-09  2.3823701E-09  2.0480806E+08   1.302547    
  2.3823701E-09  3.0590199E-09  1.5068035E+08   1.127728    
  3.0590199E-09  3.9278598E-09  1.2001408E+08   4.150959    
  3.9278598E-09  5.0434799E-09  8.7641064E+07   1.021559    
  5.0434799E-09  6.4759500E-09  7.3392032E+07   2.703861    
  6.4759500E-09  8.3152898E-09  5.3546956E+07   1.492538    
  8.3152898E-09  1.0677000E-08  4.2032108E+07   2.367127    
  1.0677000E-08  1.3709600E-08  3.2412228E+07   1.361374    
  1.3709600E-08  1.7603501E-08  2.2924760E+07   2.245475    
  1.7603501E-08  2.2603301E-08  1.8849144E+07   2.977952    
  2.2603301E-08  2.9023200E-08  1.4920195E+07   2.687832    
  2.9023200E-08  3.7266499E-08  1.0312161E+07   2.103319    
  3.7266499E-08  4.7851199E-08   8031298.       4.203411    
  4.7851199E-08  6.1442101E-08   6358059.       4.841483    
  6.1442101E-08  7.8893301E-08   4815308.       2.202690    
  7.8893301E-08  1.0130100E-07   3684631.       5.002323    
  1.0130100E-07  1.3007300E-07   2830710.       3.779084    
  1.3007300E-07  1.6701701E-07   2113606.       2.956015    
  1.6701701E-07  2.1445400E-07   1699251.       4.231083    
  2.1445400E-07  2.7536399E-07   1214188.       2.917732    
  2.7536399E-07  3.5357499E-07   1003815.       3.287740    
  3.5357499E-07  4.5399901E-07   723911.9       3.803465    
  4.5399901E-07  5.8294700E-07   529022.5       3.558548    
  5.8294700E-07  7.4851800E-07   411169.6       2.542353    
  7.4851800E-07  9.6111603E-07   309352.9       1.317286    
  9.6111603E-07  1.2341000E-06   236821.2       3.409486    
  1.2341000E-06  1.3638900E-06   206693.5       2.808054    
  1.3638900E-06  1.5073300E-06   178234.9       7.715139    
  1.5073300E-06  1.5846100E-06   163148.1       6.085805    
  1.5846100E-06  1.6658601E-06   141383.1       10.95300    
  1.6658601E-06  1.8410600E-06   133535.2       4.220035    
  1.8410600E-06  2.0346799E-06   120471.4       4.084526    
  2.0346799E-06  2.2486699E-06   108023.1       9.499247    
  2.2486699E-06  2.4851699E-06   97742.95       3.719587    
  2.4851699E-06  2.6125899E-06   85212.44       3.048914    
  2.6125899E-06  2.7465401E-06   86288.02       2.294508    
  2.7465401E-06  2.8634900E-06   79065.85       6.887971    
  2.8634900E-06  3.0353899E-06   75798.09       14.19735    
  3.0353899E-06  3.3546301E-06   71755.95       4.248453    
  3.3546301E-06  3.7074401E-06   62944.51      0.9463727    
  3.7074401E-06  4.0973500E-06   58932.55       1.113257    
  4.0973500E-06  4.3074201E-06   54360.21       8.755326    
  4.3074201E-06  4.5282700E-06   51390.31       12.20079    
  4.5282700E-06  5.0045101E-06   40161.71       5.717886    
  5.0045101E-06  5.5308401E-06   42330.79       1.582775    
  5.5308401E-06  6.2672698E-06   27781.18       6.151687    
  6.2672698E-06  7.1017398E-06   26281.53       3.951859    
  7.1017398E-06  8.0473301E-06   26380.77       5.107934    
  8.0473301E-06  9.1188203E-06   22235.89       2.759067    
  9.1188203E-06  1.0333000E-05   18700.32       2.196929    
  1.0333000E-05  1.1708800E-05   15689.17       7.441607    
  1.1708800E-05  1.3267800E-05   14430.68       4.782379    
  1.3267800E-05  1.5034400E-05   12060.93       6.355866    
  1.5034400E-05  1.7036200E-05   9559.085       7.575130    
  1.7036200E-05  1.9304500E-05   8220.240       6.766919    
  1.9304500E-05  2.1334799E-05   7595.970       3.927721    
  2.1334799E-05  2.1874899E-05   3893.698       28.02116    
  2.1874899E-05  2.3578599E-05   7117.981       3.452114    
  2.3578599E-05  2.4175501E-05   5989.173       8.084521    
  2.4175501E-05  2.4787500E-05   5726.789       12.43651    
  2.4787500E-05  2.6058400E-05   5680.843       10.07403    
  2.6058400E-05  2.8087899E-05   5698.630       9.563474    
  2.8087899E-05  3.1827800E-05   6559.353       7.443209    
  3.1827800E-05  3.4306700E-05   4212.670       9.194059    
  3.4306700E-05  3.5175199E-05   1371.823       27.79892    
  3.5175199E-05  3.6065601E-05   1810.322       22.86918    
  3.6065601E-05  4.0867701E-05   2013.902       4.505981    
  4.0867701E-05  4.6309200E-05   2446.147       8.176267    
  4.6309200E-05  5.2475199E-05   2452.937       9.886183    
  5.2475199E-05  5.6562199E-05   2294.816       12.21695    
  5.6562199E-05  5.9462200E-05   1809.611       11.59821    
  5.9462200E-05  6.2510902E-05   2019.051       17.70200    
  6.2510902E-05  6.7379500E-05   1665.577       6.295661    
  6.7379500E-05  7.6350902E-05   1766.887       8.462276    
  7.6350902E-05  8.6516899E-05   1330.349       6.812450    
  8.6516899E-05  9.8036500E-05   742.4790       2.439025    
  9.8036500E-05  1.1109000E-04   918.1875       4.847685    
  1.1109000E-04  1.1678600E-04   799.7184       5.248639    
  1.1678600E-04  1.2277300E-04   563.5480       11.23994    
  1.2277300E-04  1.2906799E-04   851.0905       14.12197    
  1.2906799E-04  1.3568600E-04   900.6350       12.91932    
  1.3568600E-04  1.4264201E-04   726.8671       12.96171    
  1.4264201E-04  1.4995600E-04   428.5034       23.68135    
  1.4995600E-04  1.5764400E-04   388.3611       3.711348    
  1.5764400E-04  1.6163501E-04   338.7029       11.54700    
  1.6163501E-04  1.6572700E-04   576.5246       23.50278    
  1.6572700E-04  1.6992200E-04   256.3681       25.00000    
  1.6992200E-04  1.7422400E-04   342.7593       11.73631    
  1.7422400E-04  1.8315599E-04   351.1307       4.074158    
  1.8315599E-04  1.9254700E-04   487.3162       13.04348    
  1.9254700E-04  2.0241900E-04   413.8589       5.587262    
  2.0241900E-04  2.1279699E-04   390.0788       8.118102    
  2.1279699E-04  2.2370800E-04   349.3429       7.516461    
  2.2370800E-04  2.3517800E-04   345.3794       19.44424    
  2.3517800E-04  2.4723500E-04   340.5344       8.473186    
  2.4723500E-04  2.5991100E-04   255.6349       8.882310    
  2.5991100E-04  2.7323700E-04   294.0260       10.52032    
  2.7323700E-04  2.8015400E-04   331.7470       6.794707    
  2.8015400E-04  2.8724599E-04   286.8049       3.396176    
  2.8724599E-04  2.9451799E-04   293.3602       13.60828    
  2.9451799E-04  3.0197401E-04   259.7213       20.02447    
  3.0197401E-04  3.0961799E-04   227.4170       23.41256    
  3.0961799E-04  3.1745600E-04   182.2847       7.659417    
  3.1745600E-04  3.3373301E-04   233.7761       7.594085    
  3.3373301E-04  3.5084400E-04   257.4320       13.72908    
  3.5084400E-04  3.6883200E-04   227.7180       4.441155    
  3.6883200E-04  3.8774201E-04   218.7573       7.040857    
  3.8774201E-04  4.0762199E-04   160.6680       12.73689    
  4.0762199E-04  4.2852099E-04   156.1009       12.03381    
  4.2852099E-04  4.5049199E-04   160.4544       7.092052    
  4.5049199E-04  4.7358900E-04   141.5484       18.37117    
  4.7358900E-04  4.9787102E-04   147.5221       12.82492    
  4.9787102E-04  5.1047403E-04   143.0939       14.78738    
  5.1047403E-04  5.2339700E-04   154.9621       18.35485    
  5.2339700E-04  5.3664698E-04   94.84560       19.45708    
  5.3664698E-04  5.5023201E-04   151.6787       3.871710    
  5.5023201E-04  5.7844300E-04   113.7617       3.782665    
  5.7844300E-04  6.0810102E-04   102.2119       5.454607    
  6.0810102E-04  6.3927902E-04   106.9091       14.33325    
  6.3927902E-04  6.7205500E-04   94.67059       5.014363    
  6.7205500E-04  7.0651202E-04   91.64482       10.45670    
  7.0651202E-04  7.4273598E-04   73.09496       9.680818    
  7.4273598E-04  7.8081700E-04   67.28811       14.41767    
  7.8081700E-04  8.2085002E-04   56.35280       6.640337    
  8.2085002E-04  8.6293602E-04   55.82042       3.133624    
  8.6293602E-04  9.0717903E-04   49.19133       13.25239    
  9.0717903E-04  9.5369201E-04   42.06703       7.858227    
  9.5369201E-04  9.6163998E-04   43.52288       23.21702    
  9.6163998E-04  9.7783399E-04   46.18732       9.628367    
  9.7783399E-04  1.0025901E-03   42.50525       10.21371    
  1.0025901E-03  1.0539900E-03   40.68933       7.137899    
  1.0539900E-03  1.1080300E-03   38.99866       5.443311    
  1.1080300E-03  1.1648400E-03   32.85233       3.166150    
  1.1648400E-03  1.1943300E-03   38.38252       7.881104    
  1.1943300E-03  1.2245600E-03   38.90772       15.05423    
  1.2245600E-03  1.2873500E-03   33.34403       6.312540    
  1.2873500E-03  1.3533500E-03   33.66392       5.069258    
  1.3533500E-03  1.4227401E-03   38.24611       3.878881    
  1.4227401E-03  1.4956900E-03   36.05449       4.535378    
  1.4956900E-03  1.5335500E-03   36.64042       18.15392    
  1.5335500E-03  1.5723699E-03   33.80696       10.87307    
  1.5723699E-03  1.6121800E-03   34.41469       2.493175    
  1.6121800E-03  1.6529900E-03   32.49351       5.705443    
  1.6529900E-03  1.7377400E-03   36.43540       7.685004    
  1.7377400E-03  1.8268300E-03   29.86066       14.59061    
  1.8268300E-03  1.8730800E-03   38.39180       5.206782    
  1.8730800E-03  1.9205000E-03   35.42339       7.801694    
  1.9205000E-03  1.9691200E-03   23.55443       10.33196    
  1.9691200E-03  2.0189700E-03   33.32318       6.842968    
  2.0189700E-03  2.1224800E-03   29.94717       2.144573    
  2.1224800E-03  2.2313001E-03   26.90086       2.643172    
  2.2313001E-03  2.2688799E-03   27.10378       12.27758    
  2.2688799E-03  2.3068599E-03   25.20759       13.03694    
  2.3068599E-03  2.3457000E-03   26.23916       5.254847    
  2.3457000E-03  2.3652499E-03   23.52197       10.34483    
  2.3652499E-03  2.3852000E-03   37.63017       23.14492    
  2.3852000E-03  2.4251300E-03   29.92421       13.51351    
  2.4251300E-03  2.4659701E-03   23.25637       9.123281    
  2.4659701E-03  2.5923999E-03   23.28408       5.780569    
  2.5923999E-03  2.7253199E-03   23.39813       8.679124    
  2.7253199E-03  2.8650500E-03   20.58895       8.046057    
  2.8650500E-03  3.0119400E-03   24.80651       13.64205    
  3.0119400E-03  3.0881900E-03   20.30272       5.834342    
  3.0881900E-03  3.1663701E-03   17.36078       21.44444    
  3.1663701E-03  3.2465300E-03   16.92335       11.19481    
  3.2465300E-03  3.3287101E-03   17.94239       9.231486    
  3.3287101E-03  3.4993801E-03   18.68692       8.537567    
  3.4993801E-03  3.6787901E-03   17.87113       5.248639    
  3.6787901E-03  3.8674099E-03   17.63072       11.22558    
  3.8674099E-03  4.0656999E-03   17.04962       8.775144    
  4.0656999E-03  4.2741499E-03   17.23094       10.89468    
  4.2741499E-03  4.4932901E-03   16.34737       8.345325    
  4.4932901E-03  4.6070400E-03   16.52758       9.953405    
  4.6070400E-03  4.7236700E-03   15.09743       11.18200    
  4.7236700E-03  4.8432499E-03   15.09595       2.148675    
  4.8432499E-03  4.9658502E-03   9.409554       9.001028    
  4.9658502E-03  5.2204598E-03   11.91814       7.565186    
  5.2204598E-03  5.4881200E-03   12.93433       7.149105    
  5.4881200E-03  5.7695000E-03   11.16152       9.511965    
  5.7695000E-03  5.9155500E-03   8.991508       8.326664    
  5.9155500E-03  6.0653100E-03   9.956754       7.715167    
  6.0653100E-03  6.2188501E-03   9.496515       13.69202    
  6.2188501E-03  6.3762800E-03   10.96136       5.421667    
  6.3762800E-03  6.5377001E-03   8.953445       6.280743    
  6.5377001E-03  6.5923799E-03   11.80681       10.94179    
  6.5923799E-03  6.6475999E-03   9.706234       39.73597    
  6.6475999E-03  6.7031998E-03   8.158929       22.82177    
  6.7031998E-03  6.8728901E-03   6.751350       18.25742    
  6.8728901E-03  7.0468802E-03   6.854334       10.81637    
  7.0468802E-03  7.2252699E-03   8.613646       12.16261    
  7.2252699E-03  7.4081798E-03   7.879817       18.32070    
  7.4081798E-03  7.5957198E-03   7.811890       11.78511    
  7.5957198E-03  7.7880099E-03   6.132676       19.45708    
  7.7880099E-03  7.9851598E-03   4.963065       18.53085    
  7.9851598E-03  8.1873098E-03   6.830342       18.36081    
  8.1873098E-03  8.3945701E-03   5.991134       3.038686    
  8.3945701E-03  8.6070802E-03   5.008871       16.13743    
  8.6070802E-03  8.8249696E-03   6.062296       16.94378    
  8.8249696E-03  9.0483697E-03   6.331336       14.01113    
  9.0483697E-03  9.2774397E-03   7.517951       9.050431    
  9.2774397E-03  9.5122904E-03   6.100579       21.98484    
  9.5122904E-03  9.7530996E-03   5.761560       9.116057    
  9.7530996E-03  9.9999998E-03   4.221817       21.02800    
  9.9999998E-03  1.0253200E-02   4.948573       20.02447    
  1.0253200E-02  1.0512700E-02   4.776947       0.000000    
  1.0512700E-02  1.0778800E-02   3.862674       13.32347    
  1.0778800E-02  1.1051700E-02   3.253003       5.248640    
  1.1051700E-02  1.1331500E-02   3.534170       6.804139    
  1.1331500E-02  1.1618300E-02   4.695081       15.30931    
  1.1618300E-02  1.1912500E-02   3.360449       25.96590    
  1.1912500E-02  1.2214000E-02   3.496560       41.38795    
  1.2214000E-02  1.2523200E-02   4.500966       24.91748    
  1.2523200E-02  1.2840200E-02   3.908885       18.51852    
  1.2840200E-02  1.3165300E-02   3.753257       23.91636    
  1.3165300E-02  1.3498600E-02   2.736143       15.78947    
  1.3498600E-02  1.3840300E-02   4.454616       16.12903    
  1.3840300E-02  1.4190700E-02   3.871076       15.27076    
  1.4190700E-02  1.4549900E-02   2.862391       11.54701    
  1.4549900E-02  1.4918300E-02   3.142307       5.248640    
  1.4918300E-02  1.5295900E-02   3.138168       35.20894    
  1.5295900E-02  1.5683100E-02   2.705780       17.97711    
  1.5683100E-02  1.6080100E-02   1.848643       31.71620    
  1.6080100E-02  1.6487200E-02   2.555716       14.34438    
  1.6487200E-02  1.6904600E-02   2.410374       24.25356    
  1.6904600E-02  1.7332500E-02   2.690520       31.43241    
  1.7332500E-02  1.7771300E-02   2.120556       29.56474    
  1.7771300E-02  1.8221200E-02   2.399400       11.26385    
  1.8221200E-02  1.8682500E-02   3.240281       16.46060    
  1.8682500E-02  1.9155400E-02   2.390470       14.80360    
  1.9155400E-02  1.9640300E-02   1.823591       23.07692    
  1.9640300E-02  2.0000000E-02   3.277325       36.41995    
