 # Detector n:  1  HeIInflux 
 # N. of energy intervals 260
  1.0000100E-14  2.0000000E-13  6.3379849E+10   14.65540    
  2.0000000E-13  2.9297300E-13  1.3577943E+11   19.80955    
  2.9297300E-13  4.2916701E-13  1.7315396E+11   12.91072    
  4.2916701E-13  6.2867300E-13  2.2060499E+11   7.896860    
  6.2867300E-13  9.2092198E-13  3.6557039E+11   5.901122    
  9.2092198E-13  1.3490300E-12  5.3772793E+11   5.111974    
  1.3490300E-12  1.9761499E-12  7.0351054E+11   2.949389    
  1.9761499E-12  2.8947901E-12  8.6120812E+11   1.785961    
  2.8947901E-12  4.2404799E-12  1.0932341E+12   1.615919    
  4.2404799E-12  6.2117499E-12  1.2123102E+12   1.690586    
  6.2117499E-12  9.0993801E-12  1.2332386E+12  0.7324912    
  9.0993801E-12  1.3329400E-11  1.1153637E+12   1.095990    
  1.3329400E-11  1.9525799E-11  8.4231553E+11   1.019536    
  1.9525799E-11  2.8602700E-11  5.1395802E+11  0.7816033    
  2.8602700E-11  4.1899099E-11  2.3076312E+11  0.8383774    
  4.1899099E-11  6.1376598E-11  9.5449244E+10   1.126654    
  6.1376598E-11  8.9908601E-11  4.0735810E+10   1.604369    
  8.9908601E-11  1.3170399E-10  2.0274100E+10   1.699271    
  1.3170399E-10  1.9292901E-10  1.0923601E+10   1.205432    
  1.9292901E-10  2.8261499E-10  6.8228833E+09  0.4550230    
  2.8261499E-10  4.1399401E-10  4.3448074E+09  0.6184605    
  4.1399401E-10  5.3157900E-10  3.1928791E+09  0.8919848    
  5.3157900E-10  6.2506200E-10  2.5902643E+09   1.354831    
  6.2506200E-10  6.8256001E-10  2.2610701E+09   1.243678    
  6.8256001E-10  8.3368101E-10  1.9512385E+09   1.236429    
  8.3368101E-10  8.7642499E-10  1.6955939E+09   1.738371    
  8.7642499E-10  1.1253500E-09  1.4713123E+09   1.280233    
  1.1253500E-09  1.4449800E-09  1.1410554E+09   1.069145    
  1.4449800E-09  1.8553900E-09  9.0397062E+08  0.8124760    
  1.8553900E-09  2.3823701E-09  6.9799046E+08  0.9549413    
  2.3823701E-09  3.0590199E-09  5.4066682E+08  0.6913595    
  3.0590199E-09  3.9278598E-09  4.2061728E+08   1.001783    
  3.9278598E-09  5.0434799E-09  3.2601565E+08  0.7772617    
  5.0434799E-09  6.4759500E-09  2.5589013E+08  0.6682668    
  6.4759500E-09  8.3152898E-09  1.9999448E+08  0.8623606    
  8.3152898E-09  1.0677000E-08  1.5559200E+08  0.8044729    
  1.0677000E-08  1.3709600E-08  1.2187107E+08  0.9020838    
  1.3709600E-08  1.7603501E-08  9.5561552E+07   1.058937    
  1.7603501E-08  2.2603301E-08  7.3550544E+07  0.7999339    
  2.2603301E-08  2.9023200E-08  5.6632776E+07  0.9028463    
  2.9023200E-08  3.7266499E-08  4.5124752E+07  0.6698184    
  3.7266499E-08  4.7851199E-08  3.5512628E+07  0.7342916    
  4.7851199E-08  6.1442101E-08  2.7068672E+07  0.6941970    
  6.1442101E-08  7.8893301E-08  2.0942594E+07  0.6146329    
  7.8893301E-08  1.0130100E-07  1.6322603E+07  0.8960596    
  1.0130100E-07  1.3007300E-07  1.2713045E+07  0.9422325    
  1.3007300E-07  1.6701701E-07   9786485.      0.6558562    
  1.6701701E-07  2.1445400E-07   7684188.      0.5263797    
  2.1445400E-07  2.7536399E-07   6014267.      0.6603728    
  2.7536399E-07  3.5357499E-07   4572299.      0.7184583    
  3.5357499E-07  4.5399901E-07   3527510.      0.6481323    
  4.5399901E-07  5.8294700E-07   2698100.      0.6280991    
  5.8294700E-07  7.4851800E-07   2119094.      0.5350894    
  7.4851800E-07  9.6111603E-07   1620896.      0.8194311    
  9.6111603E-07  1.2341000E-06   1252873.      0.7884041    
  1.2341000E-06  1.3638900E-06   1034735.       1.370865    
  1.3638900E-06  1.5073300E-06   933972.4       1.027888    
  1.5073300E-06  1.5846100E-06   873074.6       1.979026    
  1.5846100E-06  1.6658601E-06   822063.2       1.986086    
  1.6658601E-06  1.8410600E-06   750062.1       1.161556    
  1.8410600E-06  2.0346799E-06   673350.0       1.386349    
  2.0346799E-06  2.2486699E-06   616856.6       1.435842    
  2.2486699E-06  2.4851699E-06   550651.2       1.894179    
  2.4851699E-06  2.6125899E-06   504467.4       2.278159    
  2.6125899E-06  2.7465401E-06   486812.6       2.089211    
  2.7465401E-06  2.8634900E-06   435672.0       1.783840    
  2.8634900E-06  3.0353899E-06   437758.5       2.014622    
  3.0353899E-06  3.3546301E-06   409021.1       1.665021    
  3.3546301E-06  3.7074401E-06   363080.0       1.401488    
  3.7074401E-06  4.0973500E-06   322454.4       1.058435    
  4.0973500E-06  4.3074201E-06   294407.1       2.376000    
  4.3074201E-06  4.5282700E-06   287717.4       1.460826    
  4.5282700E-06  5.0045101E-06   251527.6       1.408971    
  5.0045101E-06  5.5308401E-06   252966.9       1.432927    
  5.5308401E-06  6.2672698E-06   183221.9       1.598324    
  6.2672698E-06  7.1017398E-06   178957.3       1.255361    
  7.1017398E-06  8.0473301E-06   157917.6      0.9021201    
  8.0473301E-06  9.1188203E-06   136148.2      0.9717756    
  9.1188203E-06  1.0333000E-05   118857.4       1.286528    
  1.0333000E-05  1.1708800E-05   103280.1      0.8793612    
  1.1708800E-05  1.3267800E-05   90997.29       1.007708    
  1.3267800E-05  1.5034400E-05   77343.98       1.263594    
  1.5034400E-05  1.7036200E-05   66402.08       1.502118    
  1.7036200E-05  1.9304500E-05   58787.42      0.9704376    
  1.9304500E-05  2.1334799E-05   52682.15       1.576739    
  2.1334799E-05  2.1874899E-05   48199.92       2.238392    
  2.1874899E-05  2.3578599E-05   45798.13       2.333508    
  2.3578599E-05  2.4175501E-05   42004.91       2.931189    
  2.4175501E-05  2.4787500E-05   41698.39       2.394855    
  2.4787500E-05  2.6058400E-05   40761.52       2.088171    
  2.6058400E-05  2.8087899E-05   39719.46       1.938832    
  2.8087899E-05  3.1827800E-05   40696.32       1.239277    
  3.1827800E-05  3.4306700E-05   26871.73       1.409937    
  3.4306700E-05  3.5175199E-05   14594.28       5.745240    
  3.5175199E-05  3.6065601E-05   12510.06       4.568084    
  3.6065601E-05  4.0867701E-05   17687.14       1.226367    
  4.0867701E-05  4.6309200E-05   19077.57       1.481574    
  4.6309200E-05  5.2475199E-05   17748.50       1.517347    
  5.2475199E-05  5.6562199E-05   15662.35       2.039813    
  5.6562199E-05  5.9462200E-05   15276.74       1.761687    
  5.9462200E-05  6.2510902E-05   13979.13       1.688073    
  6.2510902E-05  6.7379500E-05   13246.45       1.964336    
  6.7379500E-05  7.6350902E-05   12509.22       1.697960    
  7.6350902E-05  8.6516899E-05   9495.057       1.318604    
  8.6516899E-05  9.8036500E-05   5671.029       1.338701    
  9.8036500E-05  1.1109000E-04   6661.428       1.548937    
  1.1109000E-04  1.1678600E-04   6702.180       3.002672    
  1.1678600E-04  1.2277300E-04   4479.379       2.660853    
  1.2277300E-04  1.2906799E-04   6244.518       2.538075    
  1.2906799E-04  1.3568600E-04   6269.479       1.902601    
  1.3568600E-04  1.4264201E-04   4753.173       2.559588    
  1.4264201E-04  1.4995600E-04   3820.477       3.630217    
  1.4995600E-04  1.5764400E-04   3250.842       2.368778    
  1.5764400E-04  1.6163501E-04   2768.350       4.019432    
  1.6163501E-04  1.6572700E-04   3248.071       2.527462    
  1.6572700E-04  1.6992200E-04   3275.527       4.327669    
  1.6992200E-04  1.7422400E-04   3311.757       3.069047    
  1.7422400E-04  1.8315599E-04   3279.327       2.452794    
  1.8315599E-04  1.9254700E-04   3457.621       3.867378    
  1.9254700E-04  2.0241900E-04   3029.480       2.841030    
  2.0241900E-04  2.1279699E-04   2599.852       2.035870    
  2.1279699E-04  2.2370800E-04   2515.467       1.937532    
  2.2370800E-04  2.3517800E-04   2362.272       2.888690    
  2.3517800E-04  2.4723500E-04   2508.070       2.401781    
  2.4723500E-04  2.5991100E-04   2401.646       2.775313    
  2.5991100E-04  2.7323700E-04   2416.657       2.891936    
  2.7323700E-04  2.8015400E-04   2080.475       4.080269    
  2.8015400E-04  2.8724599E-04   1665.852       4.748841    
  2.8724599E-04  2.9451799E-04   1634.841       3.622399    
  2.9451799E-04  3.0197401E-04   1830.693       4.326542    
  3.0197401E-04  3.0961799E-04   1680.681       3.750519    
  3.0961799E-04  3.1745600E-04   1319.637       4.373369    
  3.1745600E-04  3.3373301E-04   1582.734       2.591451    
  3.3373301E-04  3.5084400E-04   1566.405       2.304205    
  3.5084400E-04  3.6883200E-04   1329.323       3.695826    
  3.6883200E-04  3.8774201E-04   1271.963       3.155177    
  3.8774201E-04  4.0762199E-04   1278.706       2.326132    
  4.0762199E-04  4.2852099E-04   991.3904       4.044232    
  4.2852099E-04  4.5049199E-04   910.4965       2.413177    
  4.5049199E-04  4.7358900E-04   866.4713       3.078741    
  4.7358900E-04  4.9787102E-04   815.9377       2.918804    
  4.9787102E-04  5.1047403E-04   873.3162       5.395935    
  5.1047403E-04  5.2339700E-04   830.4113       4.420593    
  5.2339700E-04  5.3664698E-04   664.6469       3.103508    
  5.3664698E-04  5.5023201E-04   656.0374       4.890380    
  5.5023201E-04  5.7844300E-04   647.7708       3.418054    
  5.7844300E-04  6.0810102E-04   597.1567       4.082833    
  6.0810102E-04  6.3927902E-04   528.1837       3.525559    
  6.3927902E-04  6.7205500E-04   475.6916       3.165162    
  6.7205500E-04  7.0651202E-04   455.3235       3.438813    
  7.0651202E-04  7.4273598E-04   417.3581       3.323608    
  7.4273598E-04  7.8081700E-04   346.4857       3.764580    
  7.8081700E-04  8.2085002E-04   270.8111       3.579842    
  8.2085002E-04  8.6293602E-04   255.1780       3.386033    
  8.6293602E-04  9.0717903E-04   223.2404       3.483601    
  9.0717903E-04  9.5369201E-04   199.4665       4.649292    
  9.5369201E-04  9.6163998E-04   200.3470       8.100731    
  9.6163998E-04  9.7783399E-04   180.3797       7.333757    
  9.7783399E-04  1.0025901E-03   177.9443       4.389448    
  1.0025901E-03  1.0539900E-03   152.8570       2.823185    
  1.0539900E-03  1.1080300E-03   154.5988       2.641380    
  1.1080300E-03  1.1648400E-03   140.0207       2.708040    
  1.1648400E-03  1.1943300E-03   121.8854       6.599861    
  1.1943300E-03  1.2245600E-03   133.5445       4.374887    
  1.2245600E-03  1.2873500E-03   125.3355       5.034828    
  1.2873500E-03  1.3533500E-03   121.7618       3.294520    
  1.3533500E-03  1.4227401E-03   122.4741       4.394928    
  1.4227401E-03  1.4956900E-03   111.0286       3.738581    
  1.4956900E-03  1.5335500E-03   118.7133       4.253695    
  1.5335500E-03  1.5723699E-03   108.3579       4.802524    
  1.5723699E-03  1.6121800E-03   104.3083       7.452733    
  1.6121800E-03  1.6529900E-03   101.5456       5.159535    
  1.6529900E-03  1.7377400E-03   99.85866       5.074067    
  1.7377400E-03  1.8268300E-03   86.83194       4.856324    
  1.8268300E-03  1.8730800E-03   98.49458       4.538783    
  1.8730800E-03  1.9205000E-03   90.02033       6.914130    
  1.9205000E-03  1.9691200E-03   85.49796       7.476040    
  1.9691200E-03  2.0189700E-03   86.27660       3.928008    
  2.0189700E-03  2.1224800E-03   74.50375       4.715343    
  2.1224800E-03  2.2313001E-03   66.18939       4.812483    
  2.2313001E-03  2.2688799E-03   57.44378       8.088485    
  2.2688799E-03  2.3068599E-03   65.56965       8.289198    
  2.3068599E-03  2.3457000E-03   59.11746       10.46302    
  2.3457000E-03  2.3652499E-03   58.04654       10.35861    
  2.3652499E-03  2.3852000E-03   73.21334       8.314847    
  2.3852000E-03  2.4251300E-03   54.18022       7.936194    
  2.4251300E-03  2.4659701E-03   56.93885       9.914299    
  2.4659701E-03  2.5923999E-03   49.40516       5.438382    
  2.5923999E-03  2.7253199E-03   47.04654       6.240003    
  2.7253199E-03  2.8650500E-03   42.43433       4.968235    
  2.8650500E-03  3.0119400E-03   38.97984       5.742764    
  3.0119400E-03  3.0881900E-03   35.84019       6.860428    
  3.0881900E-03  3.1663701E-03   32.27308       9.285144    
  3.1663701E-03  3.2465300E-03   31.35009       9.202085    
  3.2465300E-03  3.3287101E-03   31.17342       7.476114    
  3.3287101E-03  3.4993801E-03   29.44973       5.301381    
  3.4993801E-03  3.6787901E-03   26.76649       5.841749    
  3.6787901E-03  3.8674099E-03   26.43673       4.643137    
  3.8674099E-03  4.0656999E-03   23.66637       8.202359    
  4.0656999E-03  4.2741499E-03   22.12256       5.511515    
  4.2741499E-03  4.4932901E-03   18.91943       6.383658    
  4.4932901E-03  4.6070400E-03   19.97602       8.383802    
  4.6070400E-03  4.7236700E-03   21.29510       12.63859    
  4.7236700E-03  4.8432499E-03   16.83982       9.333412    
  4.8432499E-03  4.9658502E-03   17.54219       11.40855    
  4.9658502E-03  5.2204598E-03   17.62637       7.356293    
  5.2204598E-03  5.4881200E-03   12.32677       11.38978    
  5.4881200E-03  5.7695000E-03   14.07297       7.905785    
  5.7695000E-03  5.9155500E-03   13.04354       12.34900    
  5.9155500E-03  6.0653100E-03   10.72509       12.60588    
  6.0653100E-03  6.2188501E-03   12.58349       9.172184    
  6.2188501E-03  6.3762800E-03   11.94826       7.659502    
  6.3762800E-03  6.5377001E-03   12.41311       8.754616    
  6.5377001E-03  6.5923799E-03   9.652203       18.75561    
  6.5923799E-03  6.6475999E-03   11.48325       20.39438    
  6.6475999E-03  6.7031998E-03   14.79093       14.73875    
  6.7031998E-03  6.8728901E-03   10.50848       11.37157    
  6.8728901E-03  7.0468802E-03   10.20479       9.944729    
  7.0468802E-03  7.2252699E-03   10.48765       7.772108    
  7.2252699E-03  7.4081798E-03   8.248810       11.54832    
  7.4081798E-03  7.5957198E-03   9.933461       9.570605    
  7.5957198E-03  7.7880099E-03   10.52984       6.775505    
  7.7880099E-03  7.9851598E-03   7.198658       15.15130    
  7.9851598E-03  8.1873098E-03   9.473612       13.89744    
  8.1873098E-03  8.3945701E-03   8.806619       7.396704    
  8.3945701E-03  8.6070802E-03   7.694139       8.374415    
  8.6070802E-03  8.8249696E-03   7.669696       7.526847    
  8.8249696E-03  9.0483697E-03   8.102586       9.483778    
  9.0483697E-03  9.2774397E-03   8.051296       6.508007    
  9.2774397E-03  9.5122904E-03   7.593434       10.92921    
  9.5122904E-03  9.7530996E-03   6.058921       12.03698    
  9.7530996E-03  9.9999998E-03   5.211031       10.78457    
  9.9999998E-03  1.0253200E-02   6.732371       14.22885    
  1.0253200E-02  1.0512700E-02   7.479671       11.67755    
  1.0512700E-02  1.0778800E-02   5.891583       7.073463    
  1.0778800E-02  1.1051700E-02   5.289385       9.600902    
  1.1051700E-02  1.1331500E-02   4.798617       17.30819    
  1.1331500E-02  1.1618300E-02   5.465724       13.22177    
  1.1618300E-02  1.1912500E-02   5.364961       14.49987    
  1.1912500E-02  1.2214000E-02   4.067247       14.70878    
  1.2214000E-02  1.2523200E-02   4.038352       15.13067    
  1.2523200E-02  1.2840200E-02   4.638770       14.58393    
  1.2840200E-02  1.3165300E-02   3.793960       8.602847    
  1.3165300E-02  1.3498600E-02   4.452098       14.44938    
  1.3498600E-02  1.3840300E-02   3.510194       13.08504    
  1.3840300E-02  1.4190700E-02   4.607193       13.24754    
  1.4190700E-02  1.4549900E-02   4.390084       16.34059    
  1.4549900E-02  1.4918300E-02   3.244548       12.79580    
  1.4918300E-02  1.5295900E-02   3.166462       11.00107    
  1.5295900E-02  1.5683100E-02   3.865299       15.33928    
  1.5683100E-02  1.6080100E-02   4.068412       9.984676    
  1.6080100E-02  1.6487200E-02   3.309128       12.25237    
  1.6487200E-02  1.6904600E-02   2.872888       11.43479    
  1.6904600E-02  1.7332500E-02   3.139445       15.26151    
  1.7332500E-02  1.7771300E-02   2.658071       17.43684    
  1.7771300E-02  1.8221200E-02   2.369631       16.12109    
  1.8221200E-02  1.8682500E-02   2.766198       22.35839    
  1.8682500E-02  1.9155400E-02   2.643346       14.45639    
  1.9155400E-02  1.9640300E-02   2.750548       15.75509    
  1.9640300E-02  2.0000000E-02   2.390795       15.43409    
