 # Detector n:  1  HeIInflux 
 # N. of energy intervals 260
  1.0000100E-14  2.0000000E-13  3.8237643E+10   4.431509    
  2.0000000E-13  2.9297300E-13  9.0077290E+10   4.693685    
  2.9297300E-13  4.2916701E-13  1.2405373E+11   3.073951    
  4.2916701E-13  6.2867300E-13  1.7584310E+11   1.927142    
  6.2867300E-13  9.2092198E-13  2.3801840E+11   1.673767    
  9.2092198E-13  1.3490300E-12  3.2805657E+11   1.049739    
  1.3490300E-12  1.9761499E-12  4.3489998E+11  0.8427649    
  1.9761499E-12  2.8947901E-12  5.5550706E+11  0.6077693    
  2.8947901E-12  4.2404799E-12  6.7074248E+11  0.4447458    
  4.2404799E-12  6.2117499E-12  7.5924052E+11  0.4124635    
  6.2117499E-12  9.0993801E-12  7.8797124E+11  0.3414189    
  9.0993801E-12  1.3329400E-11  7.3054421E+11  0.3042620    
  1.3329400E-11  1.9525799E-11  5.7726756E+11  0.2694468    
  1.9525799E-11  2.8602700E-11  3.7988234E+11  0.2917790    
  2.8602700E-11  4.1899099E-11  2.0610422E+11  0.2949946    
  4.1899099E-11  6.1376598E-11  1.0165508E+11  0.3006531    
  6.1376598E-11  8.9908601E-11  4.7690912E+10  0.3707330    
  8.9908601E-11  1.3170399E-10  2.1104490E+10  0.4473002    
  1.3170399E-10  1.9292901E-10  1.0041147E+10  0.5030568    
  1.9292901E-10  2.8261499E-10  5.7648143E+09  0.5434541    
  2.8261499E-10  4.1399401E-10  3.6923950E+09  0.5384219    
  4.1399401E-10  5.3157900E-10  2.6735918E+09  0.7783905    
  5.3157900E-10  6.2506200E-10  2.1938248E+09  0.9048502    
  6.2506200E-10  6.8256001E-10  1.9087662E+09   1.398349    
  6.8256001E-10  8.3368101E-10  1.6976337E+09  0.7941675    
  8.3368101E-10  8.7642499E-10  1.4530781E+09   1.820001    
  8.7642499E-10  1.1253500E-09  1.2541989E+09  0.7088385    
  1.1253500E-09  1.4449800E-09  9.9815200E+08  0.7277359    
  1.4449800E-09  1.8553900E-09  7.7433485E+08  0.7285343    
  1.8553900E-09  2.3823701E-09  6.0976019E+08  0.8085447    
  2.3823701E-09  3.0590199E-09  4.7568976E+08  0.7434319    
  3.0590199E-09  3.9278598E-09  3.7729530E+08  0.7808976    
  3.9278598E-09  5.0434799E-09  2.9766906E+08  0.7534285    
  5.0434799E-09  6.4759500E-09  2.3299998E+08  0.7526564    
  6.4759500E-09  8.3152898E-09  1.8562435E+08  0.7463492    
  8.3152898E-09  1.0677000E-08  1.4841160E+08  0.6571817    
  1.0677000E-08  1.3709600E-08  1.1693670E+08  0.7566298    
  1.3709600E-08  1.7603501E-08  9.3682320E+07  0.6113791    
  1.7603501E-08  2.2603301E-08  7.4707968E+07  0.6374334    
  2.2603301E-08  2.9023200E-08  5.7876356E+07  0.6889379    
  2.9023200E-08  3.7266499E-08  4.6714116E+07  0.7640768    
  3.7266499E-08  4.7851199E-08  3.6714260E+07  0.6928504    
  4.7851199E-08  6.1442101E-08  2.9292342E+07  0.7052525    
  6.1442101E-08  7.8893301E-08  2.3486164E+07  0.5957436    
  7.8893301E-08  1.0130100E-07  1.8711500E+07  0.6101328    
  1.0130100E-07  1.3007300E-07  1.4809334E+07  0.6098156    
  1.3007300E-07  1.6701701E-07  1.1778159E+07  0.6748809    
  1.6701701E-07  2.1445400E-07   9413671.      0.5683202    
  2.1445400E-07  2.7536399E-07   7470538.      0.6305611    
  2.7536399E-07  3.5357499E-07   5889432.      0.5735417    
  3.5357499E-07  4.5399901E-07   4743406.      0.6224853    
  4.5399901E-07  5.8294700E-07   3779027.      0.6309240    
  5.8294700E-07  7.4851800E-07   2998146.      0.5905122    
  7.4851800E-07  9.6111603E-07   2364684.      0.6216772    
  9.6111603E-07  1.2341000E-06   1888322.      0.5317505    
  1.2341000E-06  1.3638900E-06   1609159.      0.8998386    
  1.3638900E-06  1.5073300E-06   1477224.      0.8674372    
  1.5073300E-06  1.5846100E-06   1383983.       1.149805    
  1.5846100E-06  1.6658601E-06   1329868.       1.307709    
  1.6658601E-06  1.8410600E-06   1232437.      0.8463237    
  1.8410600E-06  2.0346799E-06   1137567.      0.8436813    
  2.0346799E-06  2.2486699E-06   1035616.      0.9108889    
  2.2486699E-06  2.4851699E-06   941148.4      0.8760079    
  2.4851699E-06  2.6125899E-06   886735.8       1.033855    
  2.6125899E-06  2.7465401E-06   843170.7       1.317523    
  2.7465401E-06  2.8634900E-06   817413.3       1.257080    
  2.8634900E-06  3.0353899E-06   782568.7       1.060632    
  3.0353899E-06  3.3546301E-06   724435.1      0.8128240    
  3.3546301E-06  3.7074401E-06   660945.5      0.9189439    
  3.7074401E-06  4.0973500E-06   611021.2      0.8918847    
  4.0973500E-06  4.3074201E-06   570961.6       1.147098    
  4.3074201E-06  4.5282700E-06   538869.1       1.153791    
  4.5282700E-06  5.0045101E-06   505706.8      0.8295451    
  5.0045101E-06  5.5308401E-06   513694.3      0.8343068    
  5.5308401E-06  6.2672698E-06   325334.1      0.8900215    
  6.2672698E-06  7.1017398E-06   367909.3      0.7670410    
  7.1017398E-06  8.0473301E-06   325322.7      0.7487866    
  8.0473301E-06  9.1188203E-06   296758.2      0.7805475    
  9.1188203E-06  1.0333000E-05   265697.4      0.8068031    
  1.0333000E-05  1.1708800E-05   233514.6      0.6472232    
  1.1708800E-05  1.3267800E-05   212128.5      0.6285000    
  1.3267800E-05  1.5034400E-05   187276.3      0.7447808    
  1.5034400E-05  1.7036200E-05   165027.5      0.6699666    
  1.7036200E-05  1.9304500E-05   148574.6      0.7417493    
  1.9304500E-05  2.1334799E-05   135098.7      0.6898257    
  2.1334799E-05  2.1874899E-05   126804.3       1.426613    
  2.1874899E-05  2.3578599E-05   124790.8      0.9451042    
  2.3578599E-05  2.4175501E-05   122734.1       1.492808    
  2.4175501E-05  2.4787500E-05   119030.7       1.525504    
  2.4787500E-05  2.6058400E-05   120057.2       1.062312    
  2.6058400E-05  2.8087899E-05   127194.7      0.7767283    
  2.8087899E-05  3.1827800E-05   134215.2      0.5933070    
  3.1827800E-05  3.4306700E-05   64848.28       1.038157    
  3.4306700E-05  3.5175199E-05   32032.69       2.473841    
  3.5175199E-05  3.6065601E-05   30652.59       2.317703    
  3.6065601E-05  4.0867701E-05   39860.60       1.037148    
  4.0867701E-05  4.6309200E-05   52411.95      0.6895504    
  4.6309200E-05  5.2475199E-05   53159.44      0.7376353    
  5.2475199E-05  5.6562199E-05   51515.91      0.8604096    
  5.6562199E-05  5.9462200E-05   51006.72       1.055857    
  5.9462200E-05  6.2510902E-05   50590.29       1.003430    
  6.2510902E-05  6.7379500E-05   49125.23      0.8123552    
  6.7379500E-05  7.6350902E-05   51654.95      0.5613632    
  7.6350902E-05  8.6516899E-05   29994.28      0.7268756    
  8.6516899E-05  9.8036500E-05   15306.51      0.9329350    
  9.8036500E-05  1.1109000E-04   23677.07      0.6692184    
  1.1109000E-04  1.1678600E-04   25970.07      0.9054320    
  1.1678600E-04  1.2277300E-04   14373.37       1.305359    
  1.2277300E-04  1.2906799E-04   29436.36       1.071934    
  1.2906799E-04  1.3568600E-04   29389.77      0.8677748    
  1.3568600E-04  1.4264201E-04   16956.25       1.192843    
  1.4264201E-04  1.4995600E-04   11428.90       1.247471    
  1.4995600E-04  1.5764400E-04   11045.53       1.244792    
  1.5764400E-04  1.6163501E-04   8343.521       2.152323    
  1.6163501E-04  1.6572700E-04   11209.03       1.707303    
  1.6572700E-04  1.6992200E-04   12220.92       1.691754    
  1.6992200E-04  1.7422400E-04   13202.22       1.718956    
  1.7422400E-04  1.8315599E-04   13973.98      0.9462551    
  1.8315599E-04  1.9254700E-04   14815.81       1.119274    
  1.9254700E-04  2.0241900E-04   12853.33       1.193959    
  2.0241900E-04  2.1279699E-04   8880.613       1.359378    
  2.1279699E-04  2.2370800E-04   9631.458       1.266316    
  2.2370800E-04  2.3517800E-04   9803.268       1.090899    
  2.3517800E-04  2.4723500E-04   10849.01       1.041307    
  2.4723500E-04  2.5991100E-04   11280.31      0.9436123    
  2.5991100E-04  2.7323700E-04   12842.33      0.8812175    
  2.7323700E-04  2.8015400E-04   10267.12       1.355398    
  2.8015400E-04  2.8724599E-04   6810.133       1.716062    
  2.8724599E-04  2.9451799E-04   7147.195       1.688722    
  2.9451799E-04  3.0197401E-04   7464.423       1.681471    
  3.0197401E-04  3.0961799E-04   7497.998       1.714541    
  3.0961799E-04  3.1745600E-04   6641.232       1.716953    
  3.1745600E-04  3.3373301E-04   7633.116       1.035496    
  3.3373301E-04  3.5084400E-04   8227.867       1.047138    
  3.5084400E-04  3.6883200E-04   5964.289       1.282254    
  3.6883200E-04  3.8774201E-04   5806.951       1.101517    
  3.8774201E-04  4.0762199E-04   6084.980       1.017643    
  4.0762199E-04  4.2852099E-04   4409.003       1.252187    
  4.2852099E-04  4.5049199E-04   4031.891       1.320613    
  4.5049199E-04  4.7358900E-04   4258.802       1.160321    
  4.7358900E-04  4.9787102E-04   4439.767       1.065631    
  4.9787102E-04  5.1047403E-04   4785.370       1.456191    
  5.1047403E-04  5.2339700E-04   4420.614       1.765755    
  5.2339700E-04  5.3664698E-04   3134.021       1.821173    
  5.3664698E-04  5.5023201E-04   3734.735       1.606433    
  5.5023201E-04  5.7844300E-04   3287.302       1.175802    
  5.7844300E-04  6.0810102E-04   3391.421       1.126169    
  6.0810102E-04  6.3927902E-04   2909.226       1.329453    
  6.3927902E-04  6.7205500E-04   2345.960       1.285008    
  6.7205500E-04  7.0651202E-04   2703.903       1.109142    
  7.0651202E-04  7.4273598E-04   2359.786       1.164285    
  7.4273598E-04  7.8081700E-04   1942.897       1.230817    
  7.8081700E-04  8.2085002E-04   1318.426       1.463360    
  8.2085002E-04  8.6293602E-04   1270.004       1.564255    
  8.6293602E-04  9.0717903E-04   1179.379       1.277584    
  9.0717903E-04  9.5369201E-04   1159.305       1.547945    
  9.5369201E-04  9.6163998E-04   998.2970       3.369317    
  9.6163998E-04  9.7783399E-04   970.4374       2.250510    
  9.7783399E-04  1.0025901E-03   913.0591       1.891149    
  1.0025901E-03  1.0539900E-03   838.1097       1.322380    
  1.0539900E-03  1.1080300E-03   862.1874       1.351696    
  1.1080300E-03  1.1648400E-03   714.2872       1.426180    
  1.1648400E-03  1.1943300E-03   605.4899       2.175353    
  1.1943300E-03  1.2245600E-03   678.0330       2.226504    
  1.2245600E-03  1.2873500E-03   630.8403       1.466491    
  1.2873500E-03  1.3533500E-03   593.3129       1.469321    
  1.3533500E-03  1.4227401E-03   583.9033       1.710850    
  1.4227401E-03  1.4956900E-03   523.9603       1.639157    
  1.4956900E-03  1.5335500E-03   494.7612       2.460501    
  1.5335500E-03  1.5723699E-03   492.0063       2.441566    
  1.5723699E-03  1.6121800E-03   502.3398       2.157560    
  1.6121800E-03  1.6529900E-03   458.9374       2.137778    
  1.6529900E-03  1.7377400E-03   428.5639       1.793659    
  1.7377400E-03  1.8268300E-03   369.7007       1.993187    
  1.8268300E-03  1.8730800E-03   398.1649       2.381874    
  1.8730800E-03  1.9205000E-03   367.7530       2.359128    
  1.9205000E-03  1.9691200E-03   319.0416       3.036856    
  1.9691200E-03  2.0189700E-03   335.0685       2.647669    
  2.0189700E-03  2.1224800E-03   305.8179       1.837615    
  2.1224800E-03  2.2313001E-03   267.2195       1.993190    
  2.2313001E-03  2.2688799E-03   264.7569       3.727921    
  2.2688799E-03  2.3068599E-03   243.0660       3.508671    
  2.3068599E-03  2.3457000E-03   240.0427       3.121614    
  2.3457000E-03  2.3652499E-03   232.9872       5.144911    
  2.3652499E-03  2.3852000E-03   273.6092       4.562648    
  2.3852000E-03  2.4251300E-03   218.1180       3.620120    
  2.4251300E-03  2.4659701E-03   243.2451       3.629242    
  2.4659701E-03  2.5923999E-03   179.7401       2.322509    
  2.5923999E-03  2.7253199E-03   165.8325       2.560050    
  2.7253199E-03  2.8650500E-03   138.7450       2.814490    
  2.8650500E-03  3.0119400E-03   117.4204       2.838514    
  3.0119400E-03  3.0881900E-03   110.3757       3.813717    
  3.0881900E-03  3.1663701E-03   97.09182       3.809045    
  3.1663701E-03  3.2465300E-03   96.05169       4.370736    
  3.2465300E-03  3.3287101E-03   80.17769       3.893225    
  3.3287101E-03  3.4993801E-03   70.93629       3.428593    
  3.4993801E-03  3.6787901E-03   63.14600       2.980463    
  3.6787901E-03  3.8674099E-03   55.34826       3.850426    
  3.8674099E-03  4.0656999E-03   52.48627       3.441085    
  4.0656999E-03  4.2741499E-03   48.89594       3.473822    
  4.2741499E-03  4.4932901E-03   42.67154       3.340796    
  4.4932901E-03  4.6070400E-03   38.53175       5.831466    
  4.6070400E-03  4.7236700E-03   40.67593       5.245814    
  4.7236700E-03  4.8432499E-03   35.53291       5.183136    
  4.8432499E-03  4.9658502E-03   36.12211       5.153633    
  4.9658502E-03  5.2204598E-03   32.76440       3.620046    
  5.2204598E-03  5.4881200E-03   31.28277       3.668526    
  5.4881200E-03  5.7695000E-03   25.74803       3.955775    
  5.7695000E-03  5.9155500E-03   25.34819       5.852114    
  5.9155500E-03  6.0653100E-03   26.59391       5.300519    
  6.0653100E-03  6.2188501E-03   22.38634       5.103098    
  6.2188501E-03  6.3762800E-03   23.80344       5.210593    
  6.3762800E-03  6.5377001E-03   22.92959       5.861749    
  6.5377001E-03  6.5923799E-03   20.02276       10.25915    
  6.5923799E-03  6.6475999E-03   20.66039       11.65370    
  6.6475999E-03  6.7031998E-03   17.16245       10.70366    
  6.7031998E-03  6.8728901E-03   18.78775       5.839599    
  6.8728901E-03  7.0468802E-03   20.79059       5.987979    
  7.0468802E-03  7.2252699E-03   19.95521       6.259926    
  7.2252699E-03  7.4081798E-03   17.83856       6.695790    
  7.4081798E-03  7.5957198E-03   18.93156       5.495374    
  7.5957198E-03  7.7880099E-03   15.33749       6.560795    
  7.7880099E-03  7.9851598E-03   16.14686       6.506358    
  7.9851598E-03  8.1873098E-03   14.14355       6.026950    
  8.1873098E-03  8.3945701E-03   15.83057       6.822664    
  8.3945701E-03  8.6070802E-03   13.82396       6.629664    
  8.6070802E-03  8.8249696E-03   12.33901       7.171952    
  8.8249696E-03  9.0483697E-03   11.59092       7.103706    
  9.0483697E-03  9.2774397E-03   10.76582       7.228100    
  9.2774397E-03  9.5122904E-03   10.80206       6.587329    
  9.5122904E-03  9.7530996E-03   11.03025       6.815504    
  9.7530996E-03  9.9999998E-03   10.26258       7.214745    
  9.9999998E-03  1.0253200E-02   10.47967       7.351705    
  1.0253200E-02  1.0512700E-02   9.072599       7.971473    
  1.0512700E-02  1.0778800E-02   8.717193       8.461910    
  1.0778800E-02  1.1051700E-02   9.936695       7.046041    
  1.1051700E-02  1.1331500E-02   8.853090       7.896449    
  1.1331500E-02  1.1618300E-02   7.228323       7.626584    
  1.1618300E-02  1.1912500E-02   7.296912       7.212648    
  1.1912500E-02  1.2214000E-02   6.842251       7.253604    
  1.2214000E-02  1.2523200E-02   7.345278       7.804970    
  1.2523200E-02  1.2840200E-02   7.345707       6.837027    
  1.2840200E-02  1.3165300E-02   6.350716       7.743370    
  1.3165300E-02  1.3498600E-02   6.673281       8.090039    
  1.3498600E-02  1.3840300E-02   5.961299       7.877555    
  1.3840300E-02  1.4190700E-02   5.574348       8.274982    
  1.4190700E-02  1.4549900E-02   6.672246       8.630316    
  1.4549900E-02  1.4918300E-02   4.775409       8.291847    
  1.4918300E-02  1.5295900E-02   5.203842       7.806184    
  1.5295900E-02  1.5683100E-02   5.132204       8.650271    
  1.5683100E-02  1.6080100E-02   5.752769       7.771448    
  1.6080100E-02  1.6487200E-02   4.607116       7.692014    
  1.6487200E-02  1.6904600E-02   4.616820       8.288328    
  1.6904600E-02  1.7332500E-02   4.405769       8.676884    
  1.7332500E-02  1.7771300E-02   4.130942       7.965199    
  1.7771300E-02  1.8221200E-02   3.942348       7.173380    
  1.8221200E-02  1.8682500E-02   3.860929       8.726475    
  1.8682500E-02  1.9155400E-02   4.008797       8.308276    
  1.9155400E-02  1.9640300E-02   4.116234       8.059445    
  1.9640300E-02  2.0000000E-02   3.686296       9.782603    
