 # Detector n:            1   HeIInflux 
 # N. of energy intervals         277
  1.0000100E-14  2.0000000E-13  3.1157553E+10   2.343172    
  2.0000000E-13  2.9297300E-13  6.9351817E+10   2.410735    
  2.9297300E-13  4.2916701E-13  1.0252703E+11   1.540500    
  4.2916701E-13  6.2867300E-13  1.4731264E+11   1.126644    
  6.2867300E-13  9.2092198E-13  2.0055446E+11  0.8252113    
  9.2092198E-13  1.3490300E-12  2.7624594E+11  0.5853054    
  1.3490300E-12  1.9761499E-12  3.5982220E+11  0.4262390    
  1.9761499E-12  2.8947901E-12  4.5625567E+11  0.3279296    
  2.8947901E-12  4.2404799E-12  5.4591658E+11  0.2703239    
  4.2404799E-12  6.2117499E-12  6.0930746E+11  0.2080322    
  6.2117499E-12  9.0993801E-12  6.2253767E+11  0.1814477    
  9.0993801E-12  1.3329400E-11  5.6367212E+11  0.1689992    
  1.3329400E-11  1.9525799E-11  4.3683286E+11  0.1517409    
  1.9525799E-11  2.8602700E-11  2.8127271E+11  0.1500368    
  2.8602700E-11  4.1899099E-11  1.4908727E+11  0.1686301    
  4.1899099E-11  6.1376598E-11  7.0676668E+10  0.1965791    
  6.1376598E-11  8.9908601E-11  3.0868728E+10  0.2113446    
  8.9908601E-11  1.3170399E-10  1.1285323E+10  0.3041441    
  1.3170399E-10  1.9292901E-10  3.7128264E+09  0.3919000    
  1.9292901E-10  2.8261499E-10  1.4778979E+09  0.5526347    
  2.8261499E-10  4.1399401E-10  7.9195469E+08  0.6058223    
  4.1399401E-10  5.3157900E-10  5.3211530E+08  0.7870806    
  5.3157900E-10  6.2506200E-10  4.1458403E+08  0.9580215    
  6.2506200E-10  6.8256001E-10  3.6491773E+08   1.223900    
  6.8256001E-10  8.3368101E-10  3.1052902E+08  0.8164888    
  8.3368101E-10  8.7642499E-10  2.7399507E+08   1.611848    
  8.7642499E-10  1.1253500E-09  2.2186096E+08  0.7796236    
  1.1253500E-09  1.4449800E-09  1.7052387E+08  0.8237769    
  1.4449800E-09  1.8553900E-09  1.2935198E+08  0.8410951    
  1.8553900E-09  2.3823701E-09  9.8049848E+07  0.7968636    
  2.3823701E-09  3.0590199E-09  7.5980120E+07  0.8585142    
  3.0590199E-09  3.9278598E-09  5.7108164E+07  0.8901969    
  3.9278598E-09  5.0434799E-09  4.3774100E+07  0.8143833    
  5.0434799E-09  6.4759500E-09  3.3142080E+07  0.8043072    
  6.4759500E-09  8.3152898E-09  2.5303464E+07  0.8926630    
  8.3152898E-09  1.0677000E-08  1.9469708E+07  0.8414607    
  1.0677000E-08  1.3709600E-08  1.4960648E+07  0.8823211    
  1.3709600E-08  1.7603501E-08  1.1349691E+07  0.8388512    
  1.7603501E-08  2.2603301E-08   8762316.      0.8881827    
  2.2603301E-08  2.9023200E-08   6674742.      0.8868636    
  2.9023200E-08  3.7266499E-08   5136732.      0.8470243    
  3.7266499E-08  4.7851199E-08   3868105.      0.9321998    
  4.7851199E-08  6.1442101E-08   2945862.      0.9426097    
  6.1442101E-08  7.8893301E-08   2230776.      0.9873623    
  7.8893301E-08  1.0130100E-07   1706743.      0.9654424    
  1.0130100E-07  1.3007300E-07   1298758.      0.9597594    
  1.3007300E-07  1.6701701E-07   975918.2      0.9471389    
  1.6701701E-07  2.1445400E-07   735607.8      0.9453043    
  2.1445400E-07  2.7536399E-07   558738.2      0.9413027    
  2.7536399E-07  3.5357499E-07   423167.6       1.009284    
  3.5357499E-07  4.5399901E-07   315799.8       1.027279    
  4.5399901E-07  5.8294700E-07   240668.4       1.038987    
  5.8294700E-07  7.4851800E-07   179560.9       1.064754    
  7.4851800E-07  9.6111603E-07   135877.2       1.092904    
  9.6111603E-07  1.2341000E-06   100377.0       1.057299    
  1.2341000E-06  1.3638900E-06   82656.66       1.690847    
  1.3638900E-06  1.5073300E-06   74167.88       1.698836    
  1.5073300E-06  1.5846100E-06   69104.98       2.434135    
  1.5846100E-06  1.6658601E-06   63419.72       2.495693    
  1.6658601E-06  1.8410600E-06   59576.07       1.687689    
  1.8410600E-06  2.0346799E-06   51910.02       1.607208    
  2.0346799E-06  2.2486699E-06   48057.20       1.798999    
  2.2486699E-06  2.4851699E-06   40699.39       1.943405    
  2.4851699E-06  2.6125899E-06   37834.15       2.356702    
  2.6125899E-06  2.7465401E-06   34798.83       2.528255    
  2.7465401E-06  2.8634900E-06   33302.22       2.807133    
  2.8634900E-06  3.0353899E-06   32341.82       2.448404    
  3.0353899E-06  3.3546301E-06   28792.41       1.784245    
  3.3546301E-06  3.7074401E-06   25908.95       1.793657    
  3.7074401E-06  4.0973500E-06   23202.68       1.893425    
  4.0973500E-06  4.3074201E-06   20238.11       2.539549    
  4.3074201E-06  4.5282700E-06   18981.40       2.615526    
  4.5282700E-06  5.0045101E-06   18167.70       1.835667    
  5.0045101E-06  5.5308401E-06   17911.10       1.768564    
  5.5308401E-06  6.2672698E-06   11750.81       1.838984    
  6.2672698E-06  7.1017398E-06   12007.41       1.703760    
  7.1017398E-06  8.0473301E-06   10339.26       1.810254    
  8.0473301E-06  9.1188203E-06   8805.766       1.772790    
  9.1188203E-06  1.0333000E-05   7821.884       1.739080    
  1.0333000E-05  1.1708800E-05   6473.161       1.707536    
  1.1708800E-05  1.3267800E-05   5762.073       1.853861    
  1.3267800E-05  1.5034400E-05   4676.810       1.813882    
  1.5034400E-05  1.7036200E-05   4057.198       1.870973    
  1.7036200E-05  1.9304500E-05   3472.036       1.955606    
  1.9304500E-05  2.1334799E-05   3130.745       2.200798    
  2.1334799E-05  2.1874899E-05   2836.408       4.462654    
  2.1874899E-05  2.3578599E-05   2743.524       2.495837    
  2.3578599E-05  2.4175501E-05   2434.674       4.495331    
  2.4175501E-05  2.4787500E-05   2268.403       4.865133    
  2.4787500E-05  2.6058400E-05   2474.923       2.924724    
  2.6058400E-05  2.8087899E-05   2347.407       2.713164    
  2.8087899E-05  3.1827800E-05   2477.821       1.767867    
  3.1827800E-05  3.4306700E-05   1491.453       2.709118    
  3.4306700E-05  3.5175199E-05   690.9282       6.570620    
  3.5175199E-05  3.6065601E-05   587.7776       7.121948    
  3.6065601E-05  4.0867701E-05   865.3231       2.630588    
  4.0867701E-05  4.6309200E-05   1046.866       2.296848    
  4.6309200E-05  5.2475199E-05   933.3654       2.313387    
  5.2475199E-05  5.6562199E-05   888.4028       2.932183    
  5.6562199E-05  5.9462200E-05   819.9902       3.639081    
  5.9462200E-05  6.2510902E-05   765.5756       3.504387    
  6.2510902E-05  6.7379500E-05   753.8339       2.816203    
  6.7379500E-05  7.6350902E-05   755.0653       2.262599    
  7.6350902E-05  8.6516899E-05   528.2008       2.382748    
  8.6516899E-05  9.8036500E-05   288.8915       2.877698    
  9.8036500E-05  1.1109000E-04   370.0292       2.528731    
  1.1109000E-04  1.1678600E-04   379.7240       3.713473    
  1.1678600E-04  1.2277300E-04   249.8109       3.937048    
  1.2277300E-04  1.2906799E-04   388.4597       3.428824    
  1.2906799E-04  1.3568600E-04   381.9854       3.332557    
  1.3568600E-04  1.4264201E-04   283.7841       4.054965    
  1.4264201E-04  1.4995600E-04   199.8163       4.161357    
  1.4995600E-04  1.5764400E-04   194.4096       4.401717    
  1.5764400E-04  1.6163501E-04   157.3256       6.636831    
  1.6163501E-04  1.6572700E-04   184.7812       6.089904    
  1.6572700E-04  1.6992200E-04   194.9770       5.535873    
  1.6992200E-04  1.7422400E-04   195.9789       5.728055    
  1.7422400E-04  1.8315599E-04   202.0743       3.907775    
  1.8315599E-04  1.9254700E-04   204.0987       3.340135    
  1.9254700E-04  2.0241900E-04   201.3337       3.587508    
  2.0241900E-04  2.1279699E-04   159.8574       4.080904    
  2.1279699E-04  2.2370800E-04   146.9569       3.981169    
  2.2370800E-04  2.3517800E-04   146.8034       3.903247    
  2.3517800E-04  2.4723500E-04   148.4089       3.555361    
  2.4723500E-04  2.5991100E-04   149.5532       3.682331    
  2.5991100E-04  2.7323700E-04   165.4629       3.534406    
  2.7323700E-04  2.8015400E-04   133.6723       5.146088    
  2.8015400E-04  2.8724599E-04   99.49477       5.122369    
  2.8724599E-04  2.9451799E-04   114.9510       5.323847    
  2.9451799E-04  3.0197401E-04   111.2848       5.158630    
  3.0197401E-04  3.0961799E-04   116.4059       5.424491    
  3.0961799E-04  3.1745600E-04   109.4734       5.081171    
  3.1745600E-04  3.3373301E-04   109.5992       3.754251    
  3.3373301E-04  3.5084400E-04   104.2547       3.616832    
  3.5084400E-04  3.6883200E-04   99.49537       3.748139    
  3.6883200E-04  3.8774201E-04   86.28356       3.767414    
  3.8774201E-04  4.0762199E-04   88.97904       3.743620    
  4.0762199E-04  4.2852099E-04   71.52969       3.663950    
  4.2852099E-04  4.5049199E-04   66.12952       3.664584    
  4.5049199E-04  4.7358900E-04   64.68079       3.600275    
  4.7358900E-04  4.9787102E-04   64.96646       3.918025    
  4.9787102E-04  5.1047403E-04   61.33724       5.430213    
  5.1047403E-04  5.2339700E-04   63.46759       4.955010    
  5.2339700E-04  5.3664698E-04   46.69548       6.382925    
  5.3664698E-04  5.5023201E-04   52.57475       4.905970    
  5.5023201E-04  5.7844300E-04   45.34187       3.901995    
  5.7844300E-04  6.0810102E-04   44.72554       3.839316    
  6.0810102E-04  6.3927902E-04   43.38799       4.090046    
  6.3927902E-04  6.7205500E-04   36.42605       3.637754    
  6.7205500E-04  7.0651202E-04   35.86110       3.664781    
  7.0651202E-04  7.4273598E-04   33.59904       3.972270    
  7.4273598E-04  7.8081700E-04   28.89231       3.625650    
  7.8081700E-04  8.2085002E-04   24.19584       4.151861    
  8.2085002E-04  8.6293602E-04   22.85983       4.097514    
  8.6293602E-04  9.0717903E-04   19.43324       3.602598    
  9.0717903E-04  9.5369201E-04   17.82810       3.712104    
  9.5369201E-04  9.6163998E-04   21.49255       8.034326    
  9.6163998E-04  9.7783399E-04   16.63298       7.314676    
  9.7783399E-04  1.0025901E-03   16.22105       4.811010    
  1.0025901E-03  1.0539900E-03   15.28293       3.722197    
  1.0539900E-03  1.1080300E-03   15.14438       4.158599    
  1.1080300E-03  1.1648400E-03   14.11827       3.430130    
  1.1648400E-03  1.1943300E-03   13.62180       5.549551    
  1.1943300E-03  1.2245600E-03   12.98139       4.882863    
  1.2245600E-03  1.2873500E-03   13.95979       3.564754    
  1.2873500E-03  1.3533500E-03   13.72138       3.597130    
  1.3533500E-03  1.4227401E-03   13.43912       3.640298    
  1.4227401E-03  1.4956900E-03   12.81640       3.712183    
  1.4956900E-03  1.5335500E-03   12.27972       4.597151    
  1.5335500E-03  1.5723699E-03   11.72498       4.962751    
  1.5723699E-03  1.6121800E-03   12.32923       4.860997    
  1.6121800E-03  1.6529900E-03   13.96505       5.081621    
  1.6529900E-03  1.7377400E-03   11.66312       3.432717    
  1.7377400E-03  1.8268300E-03   12.52935       3.719503    
  1.8268300E-03  1.8730800E-03   12.10658       5.435552    
  1.8730800E-03  1.9205000E-03   12.14302       4.850487    
  1.9205000E-03  1.9691200E-03   11.08663       5.729166    
  1.9691200E-03  2.0189700E-03   11.17801       4.916486    
  2.0189700E-03  2.1224800E-03   10.51945       3.619946    
  2.1224800E-03  2.2313001E-03   11.07166       3.648363    
  2.2313001E-03  2.2688799E-03   11.54866       5.339978    
  2.2688799E-03  2.3068599E-03   10.19994       6.186572    
  2.3068599E-03  2.3457000E-03   10.60606       6.276037    
  2.3457000E-03  2.3652499E-03   10.80441       8.247766    
  2.3652499E-03  2.3852000E-03   10.58120       8.076708    
  2.3852000E-03  2.4251300E-03   10.25750       6.828608    
  2.4251300E-03  2.4659701E-03   9.970469       6.463191    
  2.4659701E-03  2.5923999E-03   9.596458       3.608925    
  2.5923999E-03  2.7253199E-03   8.533717       3.998141    
  2.7253199E-03  2.8650500E-03   8.143321       3.894783    
  2.8650500E-03  3.0119400E-03   6.871624       4.023970    
  3.0119400E-03  3.0881900E-03   6.952602       5.567247    
  3.0881900E-03  3.1663701E-03   6.739749       5.269069    
  3.1663701E-03  3.2465300E-03   6.938529       6.150775    
  3.2465300E-03  3.3287101E-03   6.696751       5.759692    
  3.3287101E-03  3.4993801E-03   6.080192       4.317903    
  3.4993801E-03  3.6787901E-03   6.037982       4.246289    
  3.6787901E-03  3.8674099E-03   5.797194       4.283990    
  3.8674099E-03  4.0656999E-03   5.943559       4.098639    
  4.0656999E-03  4.2741499E-03   5.457514       4.109809    
  4.2741499E-03  4.4932901E-03   5.394336       4.284821    
  4.4932901E-03  4.6070400E-03   5.082806       6.070073    
  4.6070400E-03  4.7236700E-03   4.791373       5.746547    
  4.7236700E-03  4.8432499E-03   5.186611       5.168575    
  4.8432499E-03  4.9658502E-03   4.855651       5.674291    
  4.9658502E-03  5.2204598E-03   4.220260       4.013870    
  5.2204598E-03  5.4881200E-03   4.410903       4.166204    
  5.4881200E-03  5.7695000E-03   4.281480       4.467424    
  5.7695000E-03  5.9155500E-03   4.085907       6.118675    
  5.9155500E-03  6.0653100E-03   3.901427       6.299244    
  6.0653100E-03  6.2188501E-03   3.660226       5.922987    
  6.2188501E-03  6.3762800E-03   3.666694       6.018462    
  6.3762800E-03  6.5377001E-03   3.373494       6.320803    
  6.5377001E-03  6.5923799E-03   4.024842       9.836071    
  6.5923799E-03  6.6475999E-03   3.446189       9.359237    
  6.6475999E-03  6.7031998E-03   3.227885       10.31542    
  6.7031998E-03  6.8728901E-03   3.590632       6.082375    
  6.8728901E-03  7.0468802E-03   3.338037       5.690965    
  7.0468802E-03  7.2252699E-03   3.084621       6.010522    
  7.2252699E-03  7.4081798E-03   2.847506       6.647794    
  7.4081798E-03  7.5957198E-03   2.654607       6.127658    
  7.5957198E-03  7.7880099E-03   2.792638       6.809485    
  7.7880099E-03  7.9851598E-03   2.718594       6.796363    
  7.9851598E-03  8.1873098E-03   2.818070       6.154169    
  8.1873098E-03  8.3945701E-03   2.706025       5.990503    
  8.3945701E-03  8.6070802E-03   2.395372       6.502074    
  8.6070802E-03  8.8249696E-03   2.638964       6.305513    
  8.8249696E-03  9.0483697E-03   2.447617       6.076274    
  9.0483697E-03  9.2774397E-03   2.571416       6.379664    
  9.2774397E-03  9.5122904E-03   2.230193       6.383282    
  9.5122904E-03  9.7530996E-03   2.487427       6.062743    
  9.7530996E-03  9.9999998E-03   2.091078       5.815312    
  9.9999998E-03  1.0253200E-02   2.333738       6.011739    
  1.0253200E-02  1.0512700E-02   2.230144       6.212385    
  1.0512700E-02  1.0778800E-02   2.283362       5.834531    
  1.0778800E-02  1.1051700E-02   2.188240       6.042448    
  1.1051700E-02  1.1331500E-02   2.163405       6.505560    
  1.1331500E-02  1.1618300E-02   1.715816       6.637011    
  1.1618300E-02  1.1912500E-02   2.012089       6.309544    
  1.1912500E-02  1.2214000E-02   1.717249       6.426134    
  1.2214000E-02  1.2523200E-02   1.863544       6.009709    
  1.2523200E-02  1.2840200E-02   1.847629       6.704922    
  1.2840200E-02  1.3165300E-02   1.932658       6.756720    
  1.3165300E-02  1.3498600E-02   1.768499       6.213985    
  1.3498600E-02  1.3840300E-02   1.685518       6.153506    
  1.3840300E-02  1.4190700E-02   1.698447       6.603892    
  1.4190700E-02  1.4549900E-02   1.688654       6.195545    
  1.4549900E-02  1.4918300E-02   1.702112       6.061466    
  1.4918300E-02  1.5295900E-02   1.523978       6.755888    
  1.5295900E-02  1.5683100E-02   1.691363       6.354173    
  1.5683100E-02  1.6080100E-02   1.386414       6.457681    
  1.6080100E-02  1.6487200E-02   1.578445       6.641170    
  1.6487200E-02  1.6904600E-02   1.630387       5.992205    
  1.6904600E-02  1.7332500E-02   1.429679       6.198400    
  1.7332500E-02  1.7771300E-02   1.222882       6.829900    
  1.7771300E-02  1.8221200E-02   1.469592       6.743280    
  1.8221200E-02  1.8682500E-02   1.291781       6.506359    
  1.8682500E-02  1.9155400E-02   1.195557       6.928794    
  1.9155400E-02  1.9640300E-02   1.346498       6.585627    
  1.9640300E-02  2.0000000E-02   1.158226       7.888345    
  2.0000000E-02  2.5174996E-02   1.211068       2.260422    
  2.5174996E-02  3.1689022E-02   1.131686       2.031261    
  3.1689022E-02  3.9888553E-02   1.008943       1.976493    
  3.9888553E-02  5.0209712E-02  0.9374366       1.914860    
  5.0209712E-02  6.3201472E-02  0.8951573       1.886048    
  6.3201472E-02  7.9554841E-02  0.7182175       2.021916    
  7.9554841E-02  0.1001396      0.5806987       2.010181    
  0.1001396      0.1260508      0.4237534       2.112217    
  0.1260508      0.1586664      0.3115653       2.255901    
  0.1586664      0.1997213      0.1902743       2.629130    
  0.1997213      0.2513991      9.7232088E-02   3.393781    
  0.2513991      0.3164486      3.2668911E-02   5.796418    
  0.3164486      0.3983297      5.8352672E-03   11.75874    
  0.3983297      0.5013974      8.4419531E-05   72.96938    
  0.5013974      0.6311339       0.000000       0.000000    
  0.6311339      0.7944397       0.000000       0.000000    
  0.7944397       1.000001       0.000000       0.000000    
