 # Detector n:            1   HeIInflux 
 # N. of energy intervals         277
  1.0000100E-14  2.0000000E-13  1.0050538E+10   21.05585    
  2.0000000E-13  2.9297300E-13  2.6610295E+10   23.40094    
  2.9297300E-13  4.2916701E-13  3.7817872E+10   9.743408    
  4.2916701E-13  6.2867300E-13  5.6585552E+10   10.82347    
  6.2867300E-13  9.2092198E-13  7.7498098E+10   7.794036    
  9.2092198E-13  1.3490300E-12  1.1330036E+11   7.790074    
  1.3490300E-12  1.9761499E-12  1.3263634E+11   3.822698    
  1.9761499E-12  2.8947901E-12  1.7500325E+11   3.284383    
  2.8947901E-12  4.2404799E-12  2.1105340E+11   2.850023    
  4.2404799E-12  6.2117499E-12  2.2655964E+11   1.883648    
  6.2117499E-12  9.0993801E-12  2.3883891E+11   1.793694    
  9.0993801E-12  1.3329400E-11  2.1622052E+11   1.965403    
  1.3329400E-11  1.9525799E-11  1.6713915E+11   1.374002    
  1.9525799E-11  2.8602700E-11  1.0975116E+11   1.585806    
  2.8602700E-11  4.1899099E-11  6.0020429E+10   1.470439    
  4.1899099E-11  6.1376598E-11  2.9363528E+10   2.024585    
  6.1376598E-11  8.9908601E-11  1.3336476E+10   2.443735    
  8.9908601E-11  1.3170399E-10  4.6437381E+09   2.672341    
  1.3170399E-10  1.9292901E-10  1.3129923E+09   3.649648    
  1.9292901E-10  2.8261499E-10  4.1505958E+08   5.212714    
  2.8261499E-10  4.1399401E-10  2.0677397E+08   4.954775    
  4.1399401E-10  5.3157900E-10  1.4183389E+08   5.249732    
  5.3157900E-10  6.2506200E-10  1.1242485E+08   6.556715    
  6.2506200E-10  6.8256001E-10  8.4081208E+07   7.877920    
  6.8256001E-10  8.3368101E-10  7.1688624E+07   5.355846    
  8.3368101E-10  8.7642499E-10  7.6276144E+07   19.70077    
  8.7642499E-10  1.1253500E-09  5.5256260E+07   5.136672    
  1.1253500E-09  1.4449800E-09  4.7862664E+07   7.706877    
  1.4449800E-09  1.8553900E-09  3.4386900E+07   5.882701    
  1.8553900E-09  2.3823701E-09  2.5220526E+07   6.317590    
  2.3823701E-09  3.0590199E-09  1.8861174E+07   5.636298    
  3.0590199E-09  3.9278598E-09  1.2973114E+07   5.703006    
  3.9278598E-09  5.0434799E-09  1.1555942E+07   7.093119    
  5.0434799E-09  6.4759500E-09   7722504.       5.723451    
  6.4759500E-09  8.3152898E-09   5868892.       5.932755    
  8.3152898E-09  1.0677000E-08   5254302.       6.156256    
  1.0677000E-08  1.3709600E-08   3302512.       5.040372    
  1.3709600E-08  1.7603501E-08   2902678.       6.327797    
  1.7603501E-08  2.2603301E-08   1964292.       7.950955    
  2.2603301E-08  2.9023200E-08   1533312.       6.595429    
  2.9023200E-08  3.7266499E-08   1154003.       6.337816    
  3.7266499E-08  4.7851199E-08   819614.9       6.439591    
  4.7851199E-08  6.1442101E-08   726928.8       9.499858    
  6.1442101E-08  7.8893301E-08   490541.8       6.353384    
  7.8893301E-08  1.0130100E-07   373550.8       5.655886    
  1.0130100E-07  1.3007300E-07   293016.2       6.279516    
  1.3007300E-07  1.6701701E-07   215210.9       7.564105    
  1.6701701E-07  2.1445400E-07   182939.2       6.415056    
  2.1445400E-07  2.7536399E-07   143936.1       7.467609    
  2.7536399E-07  3.5357499E-07   96132.46       7.338619    
  3.5357499E-07  4.5399901E-07   67921.70       9.097060    
  4.5399901E-07  5.8294700E-07   59872.72       7.464915    
  5.8294700E-07  7.4851800E-07   44676.82       7.760123    
  7.4851800E-07  9.6111603E-07   33397.21       6.338404    
  9.6111603E-07  1.2341000E-06   24316.14       7.868762    
  1.2341000E-06  1.3638900E-06   20238.16       11.70059    
  1.3638900E-06  1.5073300E-06   18877.55       12.54917    
  1.5073300E-06  1.5846100E-06   14832.85       12.22091    
  1.5846100E-06  1.6658601E-06   17965.24       15.46988    
  1.6658601E-06  1.8410600E-06   12964.59       11.97155    
  1.8410600E-06  2.0346799E-06   12306.02       10.11254    
  2.0346799E-06  2.2486699E-06   10290.79       10.16775    
  2.2486699E-06  2.4851699E-06   11597.85       16.09014    
  2.4851699E-06  2.6125899E-06   8881.479       12.82698    
  2.6125899E-06  2.7465401E-06   9305.455       24.60720    
  2.7465401E-06  2.8634900E-06   7938.687       16.26982    
  2.8634900E-06  3.0353899E-06   8200.442       14.78413    
  3.0353899E-06  3.3546301E-06   6894.647       9.559834    
  3.3546301E-06  3.7074401E-06   6325.393       13.81783    
  3.7074401E-06  4.0973500E-06   5443.243       10.34842    
  4.0973500E-06  4.3074201E-06   4154.065       13.49072    
  4.3074201E-06  4.5282700E-06   4611.784       14.70900    
  4.5282700E-06  5.0045101E-06   5013.544       17.48626    
  5.0045101E-06  5.5308401E-06   3725.425       10.31900    
  5.5308401E-06  6.2672698E-06   2908.098       15.32080    
  6.2672698E-06  7.1017398E-06   3028.237       10.28326    
  7.1017398E-06  8.0473301E-06   2904.433       11.11485    
  8.0473301E-06  9.1188203E-06   2586.114       11.14870    
  9.1188203E-06  1.0333000E-05   1726.364       10.90504    
  1.0333000E-05  1.1708800E-05   2148.863       10.44203    
  1.1708800E-05  1.3267800E-05   1265.854       9.060742    
  1.3267800E-05  1.5034400E-05   1170.896       10.60361    
  1.5034400E-05  1.7036200E-05   1366.045       14.09386    
  1.7036200E-05  1.9304500E-05   710.5066       10.88376    
  1.9304500E-05  2.1334799E-05   822.4038       14.80935    
  2.1334799E-05  2.1874899E-05   954.1164       24.68525    
  2.1874899E-05  2.3578599E-05   655.8115       20.95384    
  2.3578599E-05  2.4175501E-05   416.7655       17.48284    
  2.4175501E-05  2.4787500E-05   620.3679       22.15500    
  2.4787500E-05  2.6058400E-05   440.0358       14.99005    
  2.6058400E-05  2.8087899E-05   660.9017       13.47643    
  2.8087899E-05  3.1827800E-05   698.5076       8.464407    
  3.1827800E-05  3.4306700E-05   383.7860       15.65300    
  3.4306700E-05  3.5175199E-05   95.58900       40.65508    
  3.5175199E-05  3.6065601E-05   207.2783       39.90172    
  3.6065601E-05  4.0867701E-05   208.3598       17.33356    
  4.0867701E-05  4.6309200E-05   246.8005       10.79752    
  4.6309200E-05  5.2475199E-05   288.1331       11.62038    
  5.2475199E-05  5.6562199E-05   196.4644       11.05071    
  5.6562199E-05  5.9462200E-05   251.3666       21.70626    
  5.9462200E-05  6.2510902E-05   242.0379       18.06545    
  6.2510902E-05  6.7379500E-05   199.5133       13.03351    
  6.7379500E-05  7.6350902E-05   222.6597       9.018975    
  7.6350902E-05  8.6516899E-05   145.6322       13.14507    
  8.6516899E-05  9.8036500E-05   102.3789       17.61820    
  9.8036500E-05  1.1109000E-04   106.5906       11.01806    
  1.1109000E-04  1.1678600E-04   91.55047       14.15151    
  1.1678600E-04  1.2277300E-04   84.21956       14.49679    
  1.2277300E-04  1.2906799E-04   134.8321       16.00811    
  1.2906799E-04  1.3568600E-04   156.0470       14.18084    
  1.3568600E-04  1.4264201E-04   75.87251       13.78505    
  1.4264201E-04  1.4995600E-04   74.94945       26.91177    
  1.4995600E-04  1.5764400E-04   58.60932       17.83144    
  1.5764400E-04  1.6163501E-04   41.54000       42.53810    
  1.6163501E-04  1.6572700E-04   63.89529       17.86386    
  1.6572700E-04  1.6992200E-04   64.69518       20.17677    
  1.6992200E-04  1.7422400E-04   69.47518       18.97718    
  1.7422400E-04  1.8315599E-04   58.46008       18.37528    
  1.8315599E-04  1.9254700E-04   64.76231       16.70636    
  1.9254700E-04  2.0241900E-04   58.14977       16.70683    
  2.0241900E-04  2.1279699E-04   77.81181       31.45962    
  2.1279699E-04  2.2370800E-04   69.56148       25.44350    
  2.2370800E-04  2.3517800E-04   41.08644       17.57506    
  2.3517800E-04  2.4723500E-04   66.03192       18.68253    
  2.4723500E-04  2.5991100E-04   45.11918       15.45051    
  2.5991100E-04  2.7323700E-04   52.65801       14.23297    
  2.7323700E-04  2.8015400E-04   38.95193       17.61775    
  2.8015400E-04  2.8724599E-04   43.69747       29.53616    
  2.8724599E-04  2.9451799E-04   42.34776       24.27533    
  2.9451799E-04  3.0197401E-04   25.31298       17.48647    
  3.0197401E-04  3.0961799E-04   53.74450       22.38286    
  3.0961799E-04  3.1745600E-04   26.50422       26.08078    
  3.1745600E-04  3.3373301E-04   45.65375       16.79644    
  3.3373301E-04  3.5084400E-04   35.77147       12.03607    
  3.5084400E-04  3.6883200E-04   43.38273       21.63351    
  3.6883200E-04  3.8774201E-04   37.55242       19.94110    
  3.8774201E-04  4.0762199E-04   28.48644       14.91418    
  4.0762199E-04  4.2852099E-04   32.06907       18.60667    
  4.2852099E-04  4.5049199E-04   28.04587       13.14230    
  4.5049199E-04  4.7358900E-04   23.20846       16.65059    
  4.7358900E-04  4.9787102E-04   22.06281       14.15758    
  4.9787102E-04  5.1047403E-04   25.24655       20.06326    
  5.1047403E-04  5.2339700E-04   26.84984       21.84580    
  5.2339700E-04  5.3664698E-04   13.36017       19.84921    
  5.3664698E-04  5.5023201E-04   31.19629       25.24418    
  5.5023201E-04  5.7844300E-04   15.92196       30.14939    
  5.7844300E-04  6.0810102E-04   16.75258       16.47795    
  6.0810102E-04  6.3927902E-04   13.54408       13.09241    
  6.3927902E-04  6.7205500E-04   12.63379       16.85912    
  6.7205500E-04  7.0651202E-04   12.40658       17.28854    
  7.0651202E-04  7.4273598E-04   12.65430       13.93499    
  7.4273598E-04  7.8081700E-04   8.877965       16.09789    
  7.8081700E-04  8.2085002E-04   9.323329       15.20109    
  8.2085002E-04  8.6293602E-04   7.891392       15.70528    
  8.6293602E-04  9.0717903E-04   8.536255       16.33922    
  9.0717903E-04  9.5369201E-04   5.683684       14.54979    
  9.5369201E-04  9.6163998E-04   11.72892       30.07934    
  9.6163998E-04  9.7783399E-04   9.111299       22.78218    
  9.7783399E-04  1.0025901E-03   5.223656       21.56007    
  1.0025901E-03  1.0539900E-03   4.720196       12.73815    
  1.0539900E-03  1.1080300E-03   6.659461       13.68906    
  1.1080300E-03  1.1648400E-03   4.917251       19.02064    
  1.1648400E-03  1.1943300E-03   5.764611       20.29936    
  1.1943300E-03  1.2245600E-03   5.795265       17.48099    
  1.2245600E-03  1.2873500E-03   4.319158       11.74151    
  1.2873500E-03  1.3533500E-03   5.674458       16.38098    
  1.3533500E-03  1.4227401E-03   5.680653       16.71051    
  1.4227401E-03  1.4956900E-03   3.822958       12.69700    
  1.4956900E-03  1.5335500E-03   4.973023       16.32254    
  1.5335500E-03  1.5723699E-03   3.526538       21.04466    
  1.5723699E-03  1.6121800E-03   5.307294       18.71574    
  1.6121800E-03  1.6529900E-03   4.605000       20.65204    
  1.6529900E-03  1.7377400E-03   4.247524       17.22661    
  1.7377400E-03  1.8268300E-03   3.645440       14.75286    
  1.8268300E-03  1.8730800E-03   4.463627       18.83808    
  1.8730800E-03  1.9205000E-03   3.788100       17.52074    
  1.9205000E-03  1.9691200E-03   3.942925       17.57759    
  1.9691200E-03  2.0189700E-03   5.297488       22.29648    
  2.0189700E-03  2.1224800E-03   4.435797       17.26659    
  2.1224800E-03  2.2313001E-03   3.674155       13.22006    
  2.2313001E-03  2.2688799E-03   4.539964       24.85083    
  2.2688799E-03  2.3068599E-03   3.180391       25.40029    
  2.3068599E-03  2.3457000E-03   1.658948       20.98891    
  2.3457000E-03  2.3652499E-03   3.069266       34.00708    
  2.3652499E-03  2.3852000E-03   3.047559       22.99787    
  2.3852000E-03  2.4251300E-03   3.511940       26.62140    
  2.4251300E-03  2.4659701E-03   2.675991       20.08302    
  2.4659701E-03  2.5923999E-03   2.787688       16.33421    
  2.5923999E-03  2.7253199E-03   2.694010       12.51542    
  2.7253199E-03  2.8650500E-03   3.272012       16.32782    
  2.8650500E-03  3.0119400E-03   2.941964       18.06712    
  3.0119400E-03  3.0881900E-03   4.079004       22.34496    
  3.0881900E-03  3.1663701E-03   1.854300       20.62750    
  3.1663701E-03  3.2465300E-03   2.797762       19.04361    
  3.2465300E-03  3.3287101E-03   2.609554       20.89882    
  3.3287101E-03  3.4993801E-03   2.984592       17.58539    
  3.4993801E-03  3.6787901E-03   3.213502       18.40141    
  3.6787901E-03  3.8674099E-03   3.072476       16.50686    
  3.8674099E-03  4.0656999E-03   2.515970       19.49999    
  4.0656999E-03  4.2741499E-03   2.787138       23.46796    
  4.2741499E-03  4.4932901E-03   2.042019       14.50356    
  4.4932901E-03  4.6070400E-03   2.407280       42.98018    
  4.6070400E-03  4.7236700E-03   1.541239       19.22875    
  4.7236700E-03  4.8432499E-03   2.429516       18.87730    
  4.8432499E-03  4.9658502E-03   2.046088       23.15993    
  4.9658502E-03  5.2204598E-03   1.794105       15.10709    
  5.2204598E-03  5.4881200E-03   2.066658       14.44037    
  5.4881200E-03  5.7695000E-03   2.242781       14.41113    
  5.7695000E-03  5.9155500E-03   1.908041       23.63526    
  5.9155500E-03  6.0653100E-03   1.612782       23.26268    
  6.0653100E-03  6.2188501E-03   1.417506       27.44775    
  6.2188501E-03  6.3762800E-03   1.787243       18.13402    
  6.3762800E-03  6.5377001E-03   1.627956       22.08208    
  6.5377001E-03  6.5923799E-03  0.9930154       34.78860    
  6.5923799E-03  6.6475999E-03   1.498661       30.17900    
  6.6475999E-03  6.7031998E-03   2.341333       39.00431    
  6.7031998E-03  6.8728901E-03   1.512283       21.36178    
  6.8728901E-03  7.0468802E-03   1.227412       28.17105    
  7.0468802E-03  7.2252699E-03  0.8307889       23.27993    
  7.2252699E-03  7.4081798E-03   1.144280       26.26382    
  7.4081798E-03  7.5957198E-03   1.172193       25.44922    
  7.5957198E-03  7.7880099E-03  0.4906376       19.78913    
  7.7880099E-03  7.9851598E-03  0.7118796       22.45144    
  7.9851598E-03  8.1873098E-03   1.488237       28.55448    
  8.1873098E-03  8.3945701E-03   1.494732       20.34690    
  8.3945701E-03  8.6070802E-03  0.8719987       23.99934    
  8.6070802E-03  8.8249696E-03   1.082263       23.12463    
  8.8249696E-03  9.0483697E-03   1.395773       24.96081    
  9.0483697E-03  9.2774397E-03  0.8968693       37.67611    
  9.2774397E-03  9.5122904E-03   1.109206       30.39327    
  9.5122904E-03  9.7530996E-03  0.9362373       23.10362    
  9.7530996E-03  9.9999998E-03   1.131269       24.52609    
  9.9999998E-03  1.0253200E-02  0.9978338       33.49686    
  1.0253200E-02  1.0512700E-02  0.4754402       21.19299    
  1.0512700E-02  1.0778800E-02  0.6834295       23.71350    
  1.0778800E-02  1.1051700E-02   1.037306       24.95881    
  1.1051700E-02  1.1331500E-02   1.080383       21.73061    
  1.1331500E-02  1.1618300E-02  0.5995826       24.37965    
  1.1618300E-02  1.1912500E-02  0.6439193       29.99916    
  1.1912500E-02  1.2214000E-02   1.235879       22.46931    
  1.2214000E-02  1.2523200E-02  0.8237417       26.16751    
  1.2523200E-02  1.2840200E-02  0.6158738       23.16197    
  1.2840200E-02  1.3165300E-02  0.9279027       22.49764    
  1.3165300E-02  1.3498600E-02   1.122154       30.26444    
  1.3498600E-02  1.3840300E-02  0.5064373       24.40338    
  1.3840300E-02  1.4190700E-02  0.8059831       21.44263    
  1.4190700E-02  1.4549900E-02  0.5135674       17.95723    
  1.4549900E-02  1.4918300E-02  0.7683002       31.07806    
  1.4918300E-02  1.5295900E-02  0.6356830       30.68943    
  1.5295900E-02  1.5683100E-02  0.5017052       31.24125    
  1.5683100E-02  1.6080100E-02  0.5075668       22.05714    
  1.6080100E-02  1.6487200E-02  0.7373077       25.99200    
  1.6487200E-02  1.6904600E-02  0.5840077       28.92271    
  1.6904600E-02  1.7332500E-02  0.5054796       19.97980    
  1.7332500E-02  1.7771300E-02  0.6625694       23.77499    
  1.7771300E-02  1.8221200E-02  0.5906327       22.96131    
  1.8221200E-02  1.8682500E-02  0.5230192       30.30578    
  1.8682500E-02  1.9155400E-02  0.4527916       21.67024    
  1.9155400E-02  1.9640300E-02  0.4172969       22.03810    
  1.9640300E-02  2.0000000E-02  0.6077144       40.02250    
  2.0000000E-02  2.5174996E-02  0.5573828       9.213393    
  2.5174996E-02  3.1689022E-02  0.5202301       9.294709    
  3.1689022E-02  3.9888553E-02  0.4115032       7.816758    
  3.9888553E-02  5.0209712E-02  0.4639119       8.027565    
  5.0209712E-02  6.3201472E-02  0.4084821       7.160563    
  6.3201472E-02  7.9554841E-02  0.3887510       7.336031    
  7.9554841E-02  0.1001396      0.3230909       7.488337    
  0.1001396      0.1260508      0.2556937       7.583196    
  0.1260508      0.1586664      0.1762138       9.154752    
  0.1586664      0.1997213      0.1273222       9.494805    
  0.1997213      0.2513991      7.3101096E-02   12.18725    
  0.2513991      0.3164486      4.5800965E-02   14.64433    
  0.3164486      0.3983297      7.2251917E-03   29.18372    
  0.3983297      0.5013974       0.000000       0.000000    
  0.5013974      0.6311339       0.000000       0.000000    
  0.6311339      0.7944397       0.000000       0.000000    
  0.7944397       1.000001       0.000000       0.000000    
