 # Detector n:  1  HeIInflux 
 # N. of energy intervals 260
  1.0000100E-14  2.0000000E-13  3.6008739E+10   27.55006    
  2.0000000E-13  2.9297300E-13  7.8227939E+10   24.11451    
  2.9297300E-13  4.2916701E-13  8.4514980E+10   15.87026    
  4.2916701E-13  6.2867300E-13  8.7001137E+10   11.71131    
  6.2867300E-13  9.2092198E-13  1.5564223E+11   8.595361    
  9.2092198E-13  1.3490300E-12  2.1514530E+11   5.709231    
  1.3490300E-12  1.9761499E-12  2.9815600E+11   4.394557    
  1.9761499E-12  2.8947901E-12  3.7799769E+11   2.978227    
  2.8947901E-12  4.2404799E-12  4.6413795E+11   1.534384    
  4.2404799E-12  6.2117499E-12  5.3131356E+11   2.275070    
  6.2117499E-12  9.0993801E-12  5.6740007E+11   1.766376    
  9.0993801E-12  1.3329400E-11  5.2258983E+11   1.043558    
  1.3329400E-11  1.9525799E-11  4.1524308E+11  0.5779724    
  1.9525799E-11  2.8602700E-11  2.8595873E+11  0.8065475    
  2.8602700E-11  4.1899099E-11  1.5615264E+11   1.605469    
  4.1899099E-11  6.1376598E-11  7.8685512E+10   1.820992    
  6.1376598E-11  8.9908601E-11  3.8544007E+10   1.137145    
  8.9908601E-11  1.3170399E-10  1.8838718E+10   1.140362    
  1.3170399E-10  1.9292901E-10  1.0159590E+10   2.000927    
  1.9292901E-10  2.8261499E-10  5.9249592E+09   1.277216    
  2.8261499E-10  4.1399401E-10  3.7834112E+09  0.7470829    
  4.1399401E-10  5.3157900E-10  2.6535283E+09  0.9645043    
  5.3157900E-10  6.2506200E-10  2.2493322E+09   1.763689    
  6.2506200E-10  6.8256001E-10  1.8890351E+09   2.226712    
  6.8256001E-10  8.3368101E-10  1.6462934E+09   1.272760    
  8.3368101E-10  8.7642499E-10  1.4699643E+09   1.470914    
  8.7642499E-10  1.1253500E-09  1.2429042E+09  0.7578133    
  1.1253500E-09  1.4449800E-09  9.6494086E+08  0.9265349    
  1.4449800E-09  1.8553900E-09  7.4893702E+08   1.014386    
  1.8553900E-09  2.3823701E-09  5.8185446E+08   1.414043    
  2.3823701E-09  3.0590199E-09  4.6011203E+08  0.8735979    
  3.0590199E-09  3.9278598E-09  3.4821139E+08  0.9086856    
  3.9278598E-09  5.0434799E-09  2.7636963E+08  0.8650743    
  5.0434799E-09  6.4759500E-09  2.1496574E+08  0.8266723    
  6.4759500E-09  8.3152898E-09  1.6966773E+08  0.8856338    
  8.3152898E-09  1.0677000E-08  1.3316404E+08  0.9230300    
  1.0677000E-08  1.3709600E-08  1.0381662E+08  0.8851290    
  1.3709600E-08  1.7603501E-08  8.0898208E+07  0.7055244    
  1.7603501E-08  2.2603301E-08  6.3707592E+07  0.8425800    
  2.2603301E-08  2.9023200E-08  4.9997300E+07  0.7569610    
  2.9023200E-08  3.7266499E-08  3.9016720E+07  0.7166063    
  3.7266499E-08  4.7851199E-08  3.0219374E+07  0.6357781    
  4.7851199E-08  6.1442101E-08  2.3634966E+07  0.9034458    
  6.1442101E-08  7.8893301E-08  1.8239500E+07  0.9331588    
  7.8893301E-08  1.0130100E-07  1.4240283E+07  0.7327300    
  1.0130100E-07  1.3007300E-07  1.1130057E+07   1.047096    
  1.3007300E-07  1.6701701E-07   8670310.      0.6730490    
  1.6701701E-07  2.1445400E-07   6635790.      0.7674166    
  2.1445400E-07  2.7536399E-07   5274902.       1.022916    
  2.7536399E-07  3.5357499E-07   4032415.      0.7929280    
  3.5357499E-07  4.5399901E-07   3130452.      0.8361930    
  4.5399901E-07  5.8294700E-07   2470406.      0.7858926    
  5.8294700E-07  7.4851800E-07   1877442.      0.8965910    
  7.4851800E-07  9.6111603E-07   1454622.      0.9455743    
  9.6111603E-07  1.2341000E-06   1139607.      0.9721510    
  1.2341000E-06  1.3638900E-06   937423.2       1.145695    
  1.3638900E-06  1.5073300E-06   833192.8       1.035964    
  1.5073300E-06  1.5846100E-06   776405.8       1.868075    
  1.5846100E-06  1.6658601E-06   751430.2       1.682522    
  1.6658601E-06  1.8410600E-06   684927.0       1.325839    
  1.8410600E-06  2.0346799E-06   616642.4       1.704570    
  2.0346799E-06  2.2486699E-06   555844.6       1.738520    
  2.2486699E-06  2.4851699E-06   504772.5      0.9130782    
  2.4851699E-06  2.6125899E-06   474692.9       2.012480    
  2.6125899E-06  2.7465401E-06   427542.6       2.316051    
  2.7465401E-06  2.8634900E-06   412187.0       1.620347    
  2.8634900E-06  3.0353899E-06   394004.7       2.112632    
  3.0353899E-06  3.3546301E-06   352634.1       1.697727    
  3.3546301E-06  3.7074401E-06   327414.6       1.668857    
  3.7074401E-06  4.0973500E-06   289806.8       1.333601    
  4.0973500E-06  4.3074201E-06   266020.6       2.209417    
  4.3074201E-06  4.5282700E-06   244111.9       2.121890    
  4.5282700E-06  5.0045101E-06   235140.9       1.075138    
  5.0045101E-06  5.5308401E-06   240470.4       1.645584    
  5.5308401E-06  6.2672698E-06   154621.9       1.158059    
  6.2672698E-06  7.1017398E-06   165374.2       1.455317    
  7.1017398E-06  8.0473301E-06   140826.9       1.518249    
  8.0473301E-06  9.1188203E-06   122772.7       1.170414    
  9.1188203E-06  1.0333000E-05   106542.1       1.138171    
  1.0333000E-05  1.1708800E-05   94571.05       1.829265    
  1.1708800E-05  1.3267800E-05   82136.04       1.140326    
  1.3267800E-05  1.5034400E-05   71191.84       1.130572    
  1.5034400E-05  1.7036200E-05   62065.27      0.8074993    
  1.7036200E-05  1.9304500E-05   52927.74       1.437241    
  1.9304500E-05  2.1334799E-05   47127.88       1.215433    
  2.1334799E-05  2.1874899E-05   44683.37       2.397550    
  2.1874899E-05  2.3578599E-05   41958.39       1.510906    
  2.3578599E-05  2.4175501E-05   41686.67       4.142303    
  2.4175501E-05  2.4787500E-05   37362.84       2.732403    
  2.4787500E-05  2.6058400E-05   35277.13       1.318537    
  2.6058400E-05  2.8087899E-05   35673.52       1.813955    
  2.8087899E-05  3.1827800E-05   39012.16       1.462950    
  3.1827800E-05  3.4306700E-05   23628.71       2.488849    
  3.4306700E-05  3.5175199E-05   11623.09       3.679767    
  3.5175199E-05  3.6065601E-05   10322.83       6.473805    
  3.6065601E-05  4.0867701E-05   14509.06       1.473344    
  4.0867701E-05  4.6309200E-05   16615.69       1.227525    
  4.6309200E-05  5.2475199E-05   15146.09       1.466490    
  5.2475199E-05  5.6562199E-05   13548.07       1.854171    
  5.6562199E-05  5.9462200E-05   12737.99       3.354988    
  5.9462200E-05  6.2510902E-05   12818.25       2.643438    
  6.2510902E-05  6.7379500E-05   11752.49       1.413196    
  6.7379500E-05  7.6350902E-05   11794.99       1.534757    
  7.6350902E-05  8.6516899E-05   8187.010       1.882788    
  8.6516899E-05  9.8036500E-05   4492.459       2.049128    
  9.8036500E-05  1.1109000E-04   5805.743       1.391807    
  1.1109000E-04  1.1678600E-04   5977.556       2.929253    
  1.1678600E-04  1.2277300E-04   3780.485       3.057353    
  1.2277300E-04  1.2906799E-04   5910.433       2.789462    
  1.2906799E-04  1.3568600E-04   6247.876       2.112879    
  1.3568600E-04  1.4264201E-04   4219.052       1.762235    
  1.4264201E-04  1.4995600E-04   2880.913       2.434036    
  1.4995600E-04  1.5764400E-04   2889.239       3.579841    
  1.5764400E-04  1.6163501E-04   2042.779       5.896992    
  1.6163501E-04  1.6572700E-04   2690.501       4.258732    
  1.6572700E-04  1.6992200E-04   2817.904       4.236398    
  1.6992200E-04  1.7422400E-04   2934.867       3.663568    
  1.7422400E-04  1.8315599E-04   2969.217       1.964888    
  1.8315599E-04  1.9254700E-04   3088.068       2.528349    
  1.9254700E-04  2.0241900E-04   2635.906       2.792701    
  2.0241900E-04  2.1279699E-04   2063.903       2.691320    
  2.1279699E-04  2.2370800E-04   2150.458       3.601417    
  2.2370800E-04  2.3517800E-04   2049.745       3.974233    
  2.3517800E-04  2.4723500E-04   2035.172       3.687286    
  2.4723500E-04  2.5991100E-04   2145.381       2.579902    
  2.5991100E-04  2.7323700E-04   2051.919       2.638297    
  2.7323700E-04  2.8015400E-04   1757.138       4.800997    
  2.8015400E-04  2.8724599E-04   1520.870       4.241849    
  2.8724599E-04  2.9451799E-04   1397.310       4.764919    
  2.9451799E-04  3.0197401E-04   1383.190       3.963504    
  3.0197401E-04  3.0961799E-04   1486.093       4.867151    
  3.0961799E-04  3.1745600E-04   1348.778       1.926087    
  3.1745600E-04  3.3373301E-04   1347.744       2.465205    
  3.3373301E-04  3.5084400E-04   1413.652       2.416427    
  3.5084400E-04  3.6883200E-04   1236.766       3.811783    
  3.6883200E-04  3.8774201E-04   1112.565       3.425033    
  3.8774201E-04  4.0762199E-04   1114.037       3.571985    
  4.0762199E-04  4.2852099E-04   883.8607       2.915823    
  4.2852099E-04  4.5049199E-04   804.6423       3.051940    
  4.5049199E-04  4.7358900E-04   778.5994       3.051070    
  4.7358900E-04  4.9787102E-04   804.5145       3.710058    
  4.9787102E-04  5.1047403E-04   732.3926       4.997235    
  5.1047403E-04  5.2339700E-04   731.8298       3.512767    
  5.2339700E-04  5.3664698E-04   603.7096       4.942112    
  5.3664698E-04  5.5023201E-04   670.6979       5.669797    
  5.5023201E-04  5.7844300E-04   548.2784       4.670472    
  5.7844300E-04  6.0810102E-04   588.1665       2.564523    
  6.0810102E-04  6.3927902E-04   514.0069       2.435488    
  6.3927902E-04  6.7205500E-04   407.8677       4.248941    
  6.7205500E-04  7.0651202E-04   417.7507       3.685354    
  7.0651202E-04  7.4273598E-04   350.8192       4.297368    
  7.4273598E-04  7.8081700E-04   329.7032       4.432500    
  7.8081700E-04  8.2085002E-04   241.4718       3.444843    
  8.2085002E-04  8.6293602E-04   242.9331       3.609013    
  8.6293602E-04  9.0717903E-04   231.4295       6.099391    
  9.0717903E-04  9.5369201E-04   216.6561       2.894076    
  9.5369201E-04  9.6163998E-04   206.8394       10.66043    
  9.6163998E-04  9.7783399E-04   176.9019       6.724785    
  9.7783399E-04  1.0025901E-03   168.9073       5.636648    
  1.0025901E-03  1.0539900E-03   149.7596       4.223210    
  1.0539900E-03  1.1080300E-03   167.9126       3.049203    
  1.1080300E-03  1.1648400E-03   153.3841       3.550352    
  1.1648400E-03  1.1943300E-03   134.3784       4.331192    
  1.1943300E-03  1.2245600E-03   117.7090       4.614748    
  1.2245600E-03  1.2873500E-03   121.2413       3.580302    
  1.2873500E-03  1.3533500E-03   116.1337       4.793176    
  1.3533500E-03  1.4227401E-03   118.7897       3.503097    
  1.4227401E-03  1.4956900E-03   108.2312       3.069261    
  1.4956900E-03  1.5335500E-03   119.3807       5.152589    
  1.5335500E-03  1.5723699E-03   99.64623       5.815487    
  1.5723699E-03  1.6121800E-03   93.81185       6.840222    
  1.6121800E-03  1.6529900E-03   88.59525       9.384287    
  1.6529900E-03  1.7377400E-03   89.12695       3.441854    
  1.7377400E-03  1.8268300E-03   80.38197       3.972036    
  1.8268300E-03  1.8730800E-03   86.11115       5.101891    
  1.8730800E-03  1.9205000E-03   84.78043       5.944512    
  1.9205000E-03  1.9691200E-03   73.97582       7.410699    
  1.9691200E-03  2.0189700E-03   69.46926       7.411433    
  2.0189700E-03  2.1224800E-03   63.44989       5.022588    
  2.1224800E-03  2.2313001E-03   60.60232       4.766604    
  2.2313001E-03  2.2688799E-03   62.91498       8.483924    
  2.2688799E-03  2.3068599E-03   51.62677       10.15341    
  2.3068599E-03  2.3457000E-03   55.36597       10.42844    
  2.3457000E-03  2.3652499E-03   52.50794       11.46424    
  2.3652499E-03  2.3852000E-03   64.09673       12.86664    
  2.3852000E-03  2.4251300E-03   54.98277       10.53492    
  2.4251300E-03  2.4659701E-03   55.67714       9.141598    
  2.4659701E-03  2.5923999E-03   38.77216       6.182001    
  2.5923999E-03  2.7253199E-03   39.55803       6.023793    
  2.7253199E-03  2.8650500E-03   31.99800       8.181544    
  2.8650500E-03  3.0119400E-03   27.59298       4.513188    
  3.0119400E-03  3.0881900E-03   32.30865       7.818185    
  3.0881900E-03  3.1663701E-03   30.23722       10.18798    
  3.1663701E-03  3.2465300E-03   28.80503       9.368170    
  3.2465300E-03  3.3287101E-03   24.86188       8.247542    
  3.3287101E-03  3.4993801E-03   19.95938       6.172301    
  3.4993801E-03  3.6787901E-03   21.99941       6.049751    
  3.6787901E-03  3.8674099E-03   23.44401       4.089407    
  3.8674099E-03  4.0656999E-03   21.18072       7.342054    
  4.0656999E-03  4.2741499E-03   19.06001       5.692185    
  4.2741499E-03  4.4932901E-03   17.28363       6.708411    
  4.4932901E-03  4.6070400E-03   13.69932       11.52506    
  4.6070400E-03  4.7236700E-03   14.16760       9.645201    
  4.7236700E-03  4.8432499E-03   13.30668       11.14422    
  4.8432499E-03  4.9658502E-03   11.64919       17.35664    
  4.9658502E-03  5.2204598E-03   13.60838       9.623992    
  5.2204598E-03  5.4881200E-03   11.28286       6.466445    
  5.4881200E-03  5.7695000E-03   12.07806       7.715557    
  5.7695000E-03  5.9155500E-03   9.291117       12.85214    
  5.9155500E-03  6.0653100E-03   8.350760       11.84945    
  6.0653100E-03  6.2188501E-03   8.546206       11.69233    
  6.2188501E-03  6.3762800E-03   9.797642       7.607800    
  6.3762800E-03  6.5377001E-03   8.222019       13.96347    
  6.5377001E-03  6.5923799E-03   7.385906       16.76575    
  6.5923799E-03  6.6475999E-03   9.174011       22.11930    
  6.6475999E-03  6.7031998E-03   8.608081       20.59399    
  6.7031998E-03  6.8728901E-03   8.525695       11.07694    
  6.8728901E-03  7.0468802E-03   7.326830       14.21965    
  7.0468802E-03  7.2252699E-03   7.115357       11.86010    
  7.2252699E-03  7.4081798E-03   7.916106       13.41180    
  7.4081798E-03  7.5957198E-03   8.310193       12.77782    
  7.5957198E-03  7.7880099E-03   5.752248       13.81923    
  7.7880099E-03  7.9851598E-03   5.730097       14.49002    
  7.9851598E-03  8.1873098E-03   7.117832       11.61264    
  8.1873098E-03  8.3945701E-03   5.844433       13.44815    
  8.3945701E-03  8.6070802E-03   4.756048       15.01493    
  8.6070802E-03  8.8249696E-03   6.022713       8.953967    
  8.8249696E-03  9.0483697E-03   5.275851       8.645212    
  9.0483697E-03  9.2774397E-03   5.537680       20.73166    
  9.2774397E-03  9.5122904E-03   4.338497       11.94109    
  9.5122904E-03  9.7530996E-03   4.307210       10.99686    
  9.7530996E-03  9.9999998E-03   3.209463       8.010653    
  9.9999998E-03  1.0253200E-02   4.539034       15.05764    
  1.0253200E-02  1.0512700E-02   2.935778       19.30128    
  1.0512700E-02  1.0778800E-02   3.223161       13.23094    
  1.0778800E-02  1.1051700E-02   3.898624       10.29579    
  1.1051700E-02  1.1331500E-02   4.009278       10.97788    
  1.1331500E-02  1.1618300E-02   3.643213       17.66081    
  1.1618300E-02  1.1912500E-02   3.526420       17.52339    
  1.1912500E-02  1.2214000E-02   3.396514       12.31726    
  1.2214000E-02  1.2523200E-02   3.235863       17.45149    
  1.2523200E-02  1.2840200E-02   3.192857       9.066163    
  1.2840200E-02  1.3165300E-02   3.061717       10.91024    
  1.3165300E-02  1.3498600E-02   2.487917       14.45441    
  1.3498600E-02  1.3840300E-02   3.394991       9.750986    
  1.3840300E-02  1.4190700E-02   3.061689       9.096449    
  1.4190700E-02  1.4549900E-02   2.653026       11.44133    
  1.4549900E-02  1.4918300E-02   2.603383       16.48018    
  1.4918300E-02  1.5295900E-02   1.946349       15.26402    
  1.5295900E-02  1.5683100E-02   2.415649       15.84323    
  1.5683100E-02  1.6080100E-02   2.290952       12.41746    
  1.6080100E-02  1.6487200E-02   2.213989       13.05890    
  1.6487200E-02  1.6904600E-02   2.657807       13.09214    
  1.6904600E-02  1.7332500E-02   2.074534       12.21739    
  1.7332500E-02  1.7771300E-02   2.394092       15.13866    
  1.7771300E-02  1.8221200E-02   1.954105       9.857112    
  1.8221200E-02  1.8682500E-02   2.476596       13.56829    
  1.8682500E-02  1.9155400E-02   2.261638       18.32298    
  1.9155400E-02  1.9640300E-02   1.682168       14.62143    
  1.9640300E-02  2.0000000E-02   1.775641       21.41274    
