 # Detector n:  1  HeIInflux 
 # N. of energy intervals 260
  1.0000100E-14  2.0000000E-13  9.5211389E+10   2.874396    
  2.0000000E-13  2.9297300E-13  2.0013546E+11   3.217776    
  2.9297300E-13  4.2916701E-13  2.9809630E+11   2.230850    
  4.2916701E-13  6.2867300E-13  4.1370672E+11   1.655663    
  6.2867300E-13  9.2092198E-13  5.8069608E+11   1.187985    
  9.2092198E-13  1.3490300E-12  7.7005632E+11  0.8044400    
  1.3490300E-12  1.9761499E-12  1.0071704E+12  0.6498806    
  1.9761499E-12  2.8947901E-12  1.2727390E+12  0.4787039    
  2.8947901E-12  4.2404799E-12  1.5279013E+12  0.3659938    
  4.2404799E-12  6.2117499E-12  1.6919913E+12  0.3170909    
  6.2117499E-12  9.0993801E-12  1.7087685E+12  0.2679489    
  9.0993801E-12  1.3329400E-11  1.5111474E+12  0.2284888    
  1.3329400E-11  1.9525799E-11  1.1231220E+12  0.2324235    
  1.9525799E-11  2.8602700E-11  6.6023568E+11  0.2564534    
  2.8602700E-11  4.1899099E-11  3.0011929E+11  0.3066753    
  4.1899099E-11  6.1376598E-11  1.1981604E+11  0.3409524    
  6.1376598E-11  8.9908601E-11  5.2293669E+10  0.4300985    
  8.9908601E-11  1.3170399E-10  2.6191213E+10  0.4171870    
  1.3170399E-10  1.9292901E-10  1.4614248E+10  0.5286229    
  1.9292901E-10  2.8261499E-10  9.0063677E+09  0.5549046    
  2.8261499E-10  4.1399401E-10  5.9009336E+09  0.6413506    
  4.1399401E-10  5.3157900E-10  4.3265669E+09  0.6443777    
  5.3157900E-10  6.2506200E-10  3.4822316E+09  0.9209899    
  6.2506200E-10  6.8256001E-10  3.0209160E+09   1.196310    
  6.8256001E-10  8.3368101E-10  2.6440072E+09  0.7527163    
  8.3368101E-10  8.7642499E-10  2.2835932E+09   1.393914    
  8.7642499E-10  1.1253500E-09  2.0058546E+09  0.6690360    
  1.1253500E-09  1.4449800E-09  1.5525051E+09  0.6532597    
  1.4449800E-09  1.8553900E-09  1.2195114E+09  0.6713716    
  1.8553900E-09  2.3823701E-09  9.5223398E+08  0.6487074    
  2.3823701E-09  3.0590199E-09  7.3394970E+08  0.6326744    
  3.0590199E-09  3.9278598E-09  5.6604083E+08  0.5928656    
  3.9278598E-09  5.0434799E-09  4.3838166E+08  0.6418242    
  5.0434799E-09  6.4759500E-09  3.4235434E+08  0.7503053    
  6.4759500E-09  8.3152898E-09  2.6793499E+08  0.7227491    
  8.3152898E-09  1.0677000E-08  2.0813024E+08  0.6733249    
  1.0677000E-08  1.3709600E-08  1.6434030E+08  0.6122764    
  1.3709600E-08  1.7603501E-08  1.2724769E+08  0.6194381    
  1.7603501E-08  2.2603301E-08  1.0005166E+08  0.6649273    
  2.2603301E-08  2.9023200E-08  7.7915040E+07  0.7167152    
  2.9023200E-08  3.7266499E-08  6.0765888E+07  0.6563461    
  3.7266499E-08  4.7851199E-08  4.6901408E+07  0.7081269    
  4.7851199E-08  6.1442101E-08  3.6803444E+07  0.7097479    
  6.1442101E-08  7.8893301E-08  2.8350200E+07  0.7209451    
  7.8893301E-08  1.0130100E-07  2.2038698E+07  0.6571888    
  1.0130100E-07  1.3007300E-07  1.7186176E+07  0.7191780    
  1.3007300E-07  1.6701701E-07  1.3138054E+07  0.7792754    
  1.6701701E-07  2.1445400E-07  1.0263845E+07  0.7659900    
  2.1445400E-07  2.7536399E-07   7985352.      0.7901396    
  2.7536399E-07  3.5357499E-07   6151297.      0.7161620    
  3.5357499E-07  4.5399901E-07   4724286.      0.6832259    
  4.5399901E-07  5.8294700E-07   3668593.      0.6058882    
  5.8294700E-07  7.4851800E-07   2810757.      0.6299348    
  7.4851800E-07  9.6111603E-07   2178266.      0.7977038    
  9.6111603E-07  1.2341000E-06   1698556.      0.8150355    
  1.2341000E-06  1.3638900E-06   1395232.       1.089138    
  1.3638900E-06  1.5073300E-06   1274336.       1.141061    
  1.5073300E-06  1.5846100E-06   1174405.       1.484830    
  1.5846100E-06  1.6658601E-06   1099025.       1.480112    
  1.6658601E-06  1.8410600E-06   1035912.       1.042217    
  1.8410600E-06  2.0346799E-06   909509.9       1.178921    
  2.0346799E-06  2.2486699E-06   834431.9       1.070738    
  2.2486699E-06  2.4851699E-06   728339.4       1.369450    
  2.4851699E-06  2.6125899E-06   689293.2       1.499634    
  2.6125899E-06  2.7465401E-06   648718.1       1.704104    
  2.7465401E-06  2.8634900E-06   624578.9       1.806316    
  2.8634900E-06  3.0353899E-06   580240.2       1.282018    
  3.0353899E-06  3.3546301E-06   523672.6       1.311309    
  3.3546301E-06  3.7074401E-06   481997.0       1.238245    
  3.7074401E-06  4.0973500E-06   441657.7       1.207669    
  4.0973500E-06  4.3074201E-06   401514.5       1.733133    
  4.3074201E-06  4.5282700E-06   375160.6       1.695731    
  4.5282700E-06  5.0045101E-06   347470.6       1.293357    
  5.0045101E-06  5.5308401E-06   343558.1       1.071113    
  5.5308401E-06  6.2672698E-06   250599.5       1.047969    
  6.2672698E-06  7.1017398E-06   245232.6      0.9801214    
  7.1017398E-06  8.0473301E-06   210268.1       1.122756    
  8.0473301E-06  9.1188203E-06   183934.0       1.061789    
  9.1188203E-06  1.0333000E-05   160048.5       1.173265    
  1.0333000E-05  1.1708800E-05   138596.1       1.109545    
  1.1708800E-05  1.3267800E-05   120089.6       1.049180    
  1.3267800E-05  1.5034400E-05   105760.2      0.8483544    
  1.5034400E-05  1.7036200E-05   89767.66       1.065081    
  1.7036200E-05  1.9304500E-05   78485.68       1.148487    
  1.9304500E-05  2.1334799E-05   69042.75       1.193556    
  2.1334799E-05  2.1874899E-05   64173.56       2.933325    
  2.1874899E-05  2.3578599E-05   60323.22       1.371128    
  2.3578599E-05  2.4175501E-05   56374.18       2.592126    
  2.4175501E-05  2.4787500E-05   55473.02       2.744839    
  2.4787500E-05  2.6058400E-05   54632.93       1.861811    
  2.6058400E-05  2.8087899E-05   50509.32       1.584109    
  2.8087899E-05  3.1827800E-05   55491.12       1.028800    
  3.1827800E-05  3.4306700E-05   37946.67       1.742399    
  3.4306700E-05  3.5175199E-05   20113.49       3.136934    
  3.5175199E-05  3.6065601E-05   19007.87       4.149355    
  3.6065601E-05  4.0867701E-05   23927.26       1.452486    
  4.0867701E-05  4.6309200E-05   25978.15       1.357518    
  4.6309200E-05  5.2475199E-05   23214.43       1.255380    
  5.2475199E-05  5.6562199E-05   21135.89       1.711719    
  5.6562199E-05  5.9462200E-05   19529.91       2.040079    
  5.9462200E-05  6.2510902E-05   18387.03       2.194876    
  6.2510902E-05  6.7379500E-05   18104.31       1.578694    
  6.7379500E-05  7.6350902E-05   17018.13       1.251629    
  7.6350902E-05  8.6516899E-05   12723.40       1.315099    
  8.6516899E-05  9.8036500E-05   7668.320       1.633150    
  9.8036500E-05  1.1109000E-04   9123.036       1.552152    
  1.1109000E-04  1.1678600E-04   8583.439       2.168362    
  1.1678600E-04  1.2277300E-04   6242.288       2.376213    
  1.2277300E-04  1.2906799E-04   8790.896       1.996770    
  1.2906799E-04  1.3568600E-04   8458.729       1.900923    
  1.3568600E-04  1.4264201E-04   6637.391       2.549930    
  1.4264201E-04  1.4995600E-04   5173.858       2.133438    
  1.4995600E-04  1.5764400E-04   4624.782       2.725812    
  1.5764400E-04  1.6163501E-04   3940.065       3.895222    
  1.6163501E-04  1.6572700E-04   4689.269       3.524025    
  1.6572700E-04  1.6992200E-04   4741.667       3.178280    
  1.6992200E-04  1.7422400E-04   4519.265       3.577222    
  1.7422400E-04  1.8315599E-04   4933.820       2.189956    
  1.8315599E-04  1.9254700E-04   4715.090       2.148931    
  1.9254700E-04  2.0241900E-04   4260.863       2.212252    
  2.0241900E-04  2.1279699E-04   3362.663       2.687396    
  2.1279699E-04  2.2370800E-04   3438.563       2.509491    
  2.2370800E-04  2.3517800E-04   3322.304       2.274682    
  2.3517800E-04  2.4723500E-04   3294.561       2.272541    
  2.4723500E-04  2.5991100E-04   3221.288       2.256448    
  2.5991100E-04  2.7323700E-04   3278.010       2.042551    
  2.7323700E-04  2.8015400E-04   3121.438       3.129552    
  2.8015400E-04  2.8724599E-04   2401.341       3.509627    
  2.8724599E-04  2.9451799E-04   2346.503       3.896196    
  2.9451799E-04  3.0197401E-04   2341.208       3.200898    
  3.0197401E-04  3.0961799E-04   2277.373       3.297788    
  3.0961799E-04  3.1745600E-04   2093.037       3.741236    
  3.1745600E-04  3.3373301E-04   2106.545       2.594934    
  3.3373301E-04  3.5084400E-04   2089.627       2.410005    
  3.5084400E-04  3.6883200E-04   1795.268       2.593830    
  3.6883200E-04  3.8774201E-04   1689.597       2.752049    
  3.8774201E-04  4.0762199E-04   1661.961       2.330584    
  4.0762199E-04  4.2852099E-04   1390.444       2.805943    
  4.2852099E-04  4.5049199E-04   1297.256       2.887519    
  4.5049199E-04  4.7358900E-04   1219.596       2.513599    
  4.7358900E-04  4.9787102E-04   1175.531       2.726989    
  4.9787102E-04  5.1047403E-04   1117.501       3.719351    
  5.1047403E-04  5.2339700E-04   1095.179       3.125611    
  5.2339700E-04  5.3664698E-04   874.1437       4.225134    
  5.3664698E-04  5.5023201E-04   964.7878       3.925565    
  5.5023201E-04  5.7844300E-04   874.7746       3.075411    
  5.7844300E-04  6.0810102E-04   828.8332       2.497593    
  6.0810102E-04  6.3927902E-04   728.0338       2.917303    
  6.3927902E-04  6.7205500E-04   574.8160       3.152233    
  6.7205500E-04  7.0651202E-04   605.9814       3.073743    
  7.0651202E-04  7.4273598E-04   529.8305       2.690115    
  7.4273598E-04  7.8081700E-04   450.6807       2.943441    
  7.8081700E-04  8.2085002E-04   327.8844       3.316608    
  8.2085002E-04  8.6293602E-04   322.3438       3.493398    
  8.6293602E-04  9.0717903E-04   297.1285       3.676799    
  9.0717903E-04  9.5369201E-04   278.7791       3.100313    
  9.5369201E-04  9.6163998E-04   268.7324       7.981995    
  9.6163998E-04  9.7783399E-04   220.7792       5.254091    
  9.7783399E-04  1.0025901E-03   213.5035       4.225333    
  1.0025901E-03  1.0539900E-03   217.3582       3.009913    
  1.0539900E-03  1.1080300E-03   201.7020       3.053637    
  1.1080300E-03  1.1648400E-03   169.1492       3.169024    
  1.1648400E-03  1.1943300E-03   171.7567       4.111897    
  1.1943300E-03  1.2245600E-03   185.3042       4.081991    
  1.2245600E-03  1.2873500E-03   158.3157       3.644401    
  1.2873500E-03  1.3533500E-03   149.1129       3.686313    
  1.3533500E-03  1.4227401E-03   160.6176       3.245364    
  1.4227401E-03  1.4956900E-03   148.0938       3.296093    
  1.4956900E-03  1.5335500E-03   145.6635       4.351781    
  1.5335500E-03  1.5723699E-03   124.7877       5.078906    
  1.5723699E-03  1.6121800E-03   130.7686       5.077656    
  1.6121800E-03  1.6529900E-03   128.8718       5.494799    
  1.6529900E-03  1.7377400E-03   128.1309       3.618127    
  1.7377400E-03  1.8268300E-03   113.0092       3.631649    
  1.8268300E-03  1.8730800E-03   120.9571       6.048031    
  1.8730800E-03  1.9205000E-03   116.0623       5.289046    
  1.9205000E-03  1.9691200E-03   104.1115       5.223897    
  1.9691200E-03  2.0189700E-03   108.5555       5.559701    
  2.0189700E-03  2.1224800E-03   97.21595       4.099157    
  2.1224800E-03  2.2313001E-03   89.93222       3.953609    
  2.2313001E-03  2.2688799E-03   92.18496       6.845705    
  2.2688799E-03  2.3068599E-03   85.93286       7.740588    
  2.3068599E-03  2.3457000E-03   78.07452       7.442636    
  2.3457000E-03  2.3652499E-03   90.99498       10.55209    
  2.3652499E-03  2.3852000E-03   83.94611       9.137913    
  2.3852000E-03  2.4251300E-03   75.55756       6.741681    
  2.4251300E-03  2.4659701E-03   80.66786       6.747288    
  2.4659701E-03  2.5923999E-03   65.10052       4.401258    
  2.5923999E-03  2.7253199E-03   58.09998       4.834583    
  2.7253199E-03  2.8650500E-03   52.90086       4.355452    
  2.8650500E-03  3.0119400E-03   53.43359       4.587475    
  3.0119400E-03  3.0881900E-03   52.67507       6.810105    
  3.0881900E-03  3.1663701E-03   43.70107       8.082394    
  3.1663701E-03  3.2465300E-03   43.13655       6.974850    
  3.2465300E-03  3.3287101E-03   40.48104       8.154316    
  3.3287101E-03  3.4993801E-03   35.56977       4.977700    
  3.4993801E-03  3.6787901E-03   33.70760       5.382998    
  3.6787901E-03  3.8674099E-03   31.54102       5.351869    
  3.8674099E-03  4.0656999E-03   30.62600       5.586429    
  4.0656999E-03  4.2741499E-03   30.84692       5.937136    
  4.2741499E-03  4.4932901E-03   28.08423       5.258811    
  4.4932901E-03  4.6070400E-03   25.23099       9.064324    
  4.6070400E-03  4.7236700E-03   25.84179       8.370552    
  4.7236700E-03  4.8432499E-03   25.52634       8.060841    
  4.8432499E-03  4.9658502E-03   23.83458       7.796102    
  4.9658502E-03  5.2204598E-03   23.55248       5.852699    
  5.2204598E-03  5.4881200E-03   20.20950       6.323776    
  5.4881200E-03  5.7695000E-03   21.30976       5.844216    
  5.7695000E-03  5.9155500E-03   20.03775       7.888540    
  5.9155500E-03  6.0653100E-03   17.43934       7.834165    
  6.0653100E-03  6.2188501E-03   18.11756       7.777141    
  6.2188501E-03  6.3762800E-03   20.33433       7.727336    
  6.3762800E-03  6.5377001E-03   15.58025       9.023303    
  6.5377001E-03  6.5923799E-03   17.51824       12.58464    
  6.5923799E-03  6.6475999E-03   11.87881       17.71180    
  6.6475999E-03  6.7031998E-03   12.86700       16.22680    
  6.7031998E-03  6.8728901E-03   16.07016       8.103240    
  6.8728901E-03  7.0468802E-03   14.55689       8.825365    
  7.0468802E-03  7.2252699E-03   15.66253       9.016703    
  7.2252699E-03  7.4081798E-03   13.59307       8.052046    
  7.4081798E-03  7.5957198E-03   13.60525       9.412334    
  7.5957198E-03  7.7880099E-03   11.29249       10.01086    
  7.7880099E-03  7.9851598E-03   12.64293       9.267043    
  7.9851598E-03  8.1873098E-03   11.38107       9.288587    
  8.1873098E-03  8.3945701E-03   12.14618       8.867988    
  8.3945701E-03  8.6070802E-03   9.578588       10.94183    
  8.6070802E-03  8.8249696E-03   8.961659       10.20605    
  8.8249696E-03  9.0483697E-03   11.54541       8.643368    
  9.0483697E-03  9.2774397E-03   9.279329       9.681951    
  9.2774397E-03  9.5122904E-03   8.814488       9.158839    
  9.5122904E-03  9.7530996E-03   9.695330       9.510463    
  9.7530996E-03  9.9999998E-03   9.043662       10.17632    
  9.9999998E-03  1.0253200E-02   7.253879       11.30814    
  1.0253200E-02  1.0512700E-02   6.442152       10.28896    
  1.0512700E-02  1.0778800E-02   6.910287       10.97941    
  1.0778800E-02  1.1051700E-02   7.255703       10.92056    
  1.1051700E-02  1.1331500E-02   6.362929       10.78496    
  1.1331500E-02  1.1618300E-02   6.531093       10.63773    
  1.1618300E-02  1.1912500E-02   7.353243       9.924673    
  1.1912500E-02  1.2214000E-02   7.174755       9.437010    
  1.2214000E-02  1.2523200E-02   5.919528       12.17045    
  1.2523200E-02  1.2840200E-02   5.760571       10.99384    
  1.2840200E-02  1.3165300E-02   7.780249       8.530521    
  1.3165300E-02  1.3498600E-02   6.884006       9.201809    
  1.3498600E-02  1.3840300E-02   5.246903       9.535134    
  1.3840300E-02  1.4190700E-02   5.161191       9.059880    
  1.4190700E-02  1.4549900E-02   5.563165       10.80989    
  1.4549900E-02  1.4918300E-02   5.692644       11.16627    
  1.4918300E-02  1.5295900E-02   5.078739       10.17267    
  1.5295900E-02  1.5683100E-02   3.477960       14.88549    
  1.5683100E-02  1.6080100E-02   4.896194       11.56085    
  1.6080100E-02  1.6487200E-02   5.479599       11.56311    
  1.6487200E-02  1.6904600E-02   4.167202       12.68800    
  1.6904600E-02  1.7332500E-02   4.126089       11.43379    
  1.7332500E-02  1.7771300E-02   4.093834       12.19655    
  1.7771300E-02  1.8221200E-02   3.668232       10.50434    
  1.8221200E-02  1.8682500E-02   3.157400       13.82078    
  1.8682500E-02  1.9155400E-02   3.793675       10.71039    
  1.9155400E-02  1.9640300E-02   3.238334       13.80879    
  1.9640300E-02  2.0000000E-02   2.784866       14.87935    
