 # Detector n:  1  HeIInflux 
 # N. of energy intervals 260
  1.0000100E-14  2.0000000E-13  2.0263442E+10   15.22406    
  2.0000000E-13  2.9297300E-13  7.4642416E+10   18.71971    
  2.9297300E-13  4.2916701E-13  8.0054583E+10   17.24989    
  4.2916701E-13  6.2867300E-13  1.2344309E+11   9.167199    
  6.2867300E-13  9.2092198E-13  1.7000350E+11   7.716379    
  9.2092198E-13  1.3490300E-12  2.2230031E+11   6.680204    
  1.3490300E-12  1.9761499E-12  3.0853277E+11   3.731854    
  1.9761499E-12  2.8947901E-12  4.1978010E+11   2.636801    
  2.8947901E-12  4.2404799E-12  4.9057048E+11   2.991438    
  4.2404799E-12  6.2117499E-12  5.5958346E+11   1.445668    
  6.2117499E-12  9.0993801E-12  5.7703989E+11   1.082375    
  9.0993801E-12  1.3329400E-11  5.3324235E+11   1.161387    
  1.3329400E-11  1.9525799E-11  4.0982040E+11   1.161968    
  1.9525799E-11  2.8602700E-11  2.5005171E+11   1.514162    
  2.8602700E-11  4.1899099E-11  1.1894238E+11   1.874317    
  4.1899099E-11  6.1376598E-11  4.8945824E+10   1.210597    
  6.1376598E-11  8.9908601E-11  2.2238061E+10   1.443562    
  8.9908601E-11  1.3170399E-10  1.1436007E+10   1.951488    
  1.3170399E-10  1.9292901E-10  6.5450240E+09   1.238644    
  1.9292901E-10  2.8261499E-10  4.2036854E+09   1.020328    
  2.8261499E-10  4.1399401E-10  2.7226309E+09  0.7211342    
  4.1399401E-10  5.3157900E-10  1.9802405E+09   1.173744    
  5.3157900E-10  6.2506200E-10  1.6122359E+09   1.431842    
  6.2506200E-10  6.8256001E-10  1.4297197E+09   1.664965    
  6.8256001E-10  8.3368101E-10  1.2303494E+09  0.7111396    
  8.3368101E-10  8.7642499E-10  1.1007515E+09   2.459204    
  8.7642499E-10  1.1253500E-09  9.2040813E+08   1.083036    
  1.1253500E-09  1.4449800E-09  7.2006592E+08   1.061776    
  1.4449800E-09  1.8553900E-09  5.5834074E+08  0.8003368    
  1.8553900E-09  2.3823701E-09  4.3287114E+08   1.409000    
  2.3823701E-09  3.0590199E-09  3.4379078E+08   1.214826    
  3.0590199E-09  3.9278598E-09  2.7153840E+08  0.9943639    
  3.9278598E-09  5.0434799E-09  2.1169277E+08  0.9239409    
  5.0434799E-09  6.4759500E-09  1.6160274E+08  0.8971542    
  6.4759500E-09  8.3152898E-09  1.2664957E+08  0.7687171    
  8.3152898E-09  1.0677000E-08  9.9120472E+07  0.8989098    
  1.0677000E-08  1.3709600E-08  7.8006696E+07   1.100363    
  1.3709600E-08  1.7603501E-08  6.0999656E+07   1.183194    
  1.7603501E-08  2.2603301E-08  4.7754536E+07  0.7580581    
  2.2603301E-08  2.9023200E-08  3.7435640E+07  0.9365714    
  2.9023200E-08  3.7266499E-08  2.9651038E+07  0.7951569    
  3.7266499E-08  4.7851199E-08  2.3012934E+07   1.018762    
  4.7851199E-08  6.1442101E-08  1.7463704E+07   1.254998    
  6.1442101E-08  7.8893301E-08  1.3885667E+07   1.013758    
  7.8893301E-08  1.0130100E-07  1.0848615E+07  0.8780861    
  1.0130100E-07  1.3007300E-07   8462858.      0.8528824    
  1.3007300E-07  1.6701701E-07   6500616.      0.9132110    
  1.6701701E-07  2.1445400E-07   5129312.      0.9100760    
  2.1445400E-07  2.7536399E-07   3931328.      0.8373792    
  2.7536399E-07  3.5357499E-07   3043274.      0.7846608    
  3.5357499E-07  4.5399901E-07   2370885.      0.7466064    
  4.5399901E-07  5.8294700E-07   1828256.      0.8851784    
  5.8294700E-07  7.4851800E-07   1422556.      0.8347397    
  7.4851800E-07  9.6111603E-07   1089483.       1.192006    
  9.6111603E-07  1.2341000E-06   841628.8       1.269484    
  1.2341000E-06  1.3638900E-06   719326.6       1.327967    
  1.3638900E-06  1.5073300E-06   646846.5       1.433218    
  1.5073300E-06  1.5846100E-06   581304.5       1.733866    
  1.5846100E-06  1.6658601E-06   583874.1       2.576730    
  1.6658601E-06  1.8410600E-06   517121.2       1.070185    
  1.8410600E-06  2.0346799E-06   462986.3       1.147045    
  2.0346799E-06  2.2486699E-06   419100.8       1.415508    
  2.2486699E-06  2.4851699E-06   371943.1       1.119987    
  2.4851699E-06  2.6125899E-06   346071.7       2.002976    
  2.6125899E-06  2.7465401E-06   332524.1       2.330737    
  2.7465401E-06  2.8634900E-06   319021.9       2.353849    
  2.8634900E-06  3.0353899E-06   304039.3       2.188196    
  3.0353899E-06  3.3546301E-06   267522.7       1.359925    
  3.3546301E-06  3.7074401E-06   245427.5       1.655647    
  3.7074401E-06  4.0973500E-06   224290.9      0.9365469    
  4.0973500E-06  4.3074201E-06   200053.1       2.388114    
  4.3074201E-06  4.5282700E-06   190599.2       1.542584    
  4.5282700E-06  5.0045101E-06   179912.8       1.905329    
  5.0045101E-06  5.5308401E-06   173819.2      0.6385934    
  5.5308401E-06  6.2672698E-06   128659.6      0.9643861    
  6.2672698E-06  7.1017398E-06   123923.1       1.216489    
  7.1017398E-06  8.0473301E-06   107062.1       1.456398    
  8.0473301E-06  9.1188203E-06   95278.09       1.159331    
  9.1188203E-06  1.0333000E-05   81862.96       1.845712    
  1.0333000E-05  1.1708800E-05   72012.23       1.758450    
  1.1708800E-05  1.3267800E-05   62079.49       1.546865    
  1.3267800E-05  1.5034400E-05   54075.85       1.232967    
  1.5034400E-05  1.7036200E-05   47136.57       1.569313    
  1.7036200E-05  1.9304500E-05   38949.97       1.154086    
  1.9304500E-05  2.1334799E-05   36225.23       1.400761    
  2.1334799E-05  2.1874899E-05   32227.13       2.690898    
  2.1874899E-05  2.3578599E-05   31015.79       1.829762    
  2.3578599E-05  2.4175501E-05   28994.90       2.813255    
  2.4175501E-05  2.4787500E-05   30171.40       4.306339    
  2.4787500E-05  2.6058400E-05   28112.78       1.838367    
  2.6058400E-05  2.8087899E-05   27364.62       1.358842    
  2.8087899E-05  3.1827800E-05   28536.42      0.9613817    
  3.1827800E-05  3.4306700E-05   19499.79       1.769802    
  3.4306700E-05  3.5175199E-05   9028.776       5.280375    
  3.5175199E-05  3.6065601E-05   9746.023       4.140242    
  3.6065601E-05  4.0867701E-05   12517.18       1.474212    
  4.0867701E-05  4.6309200E-05   13275.83       1.094586    
  4.6309200E-05  5.2475199E-05   12180.58       1.495596    
  5.2475199E-05  5.6562199E-05   11070.81       2.227984    
  5.6562199E-05  5.9462200E-05   10344.58       2.651494    
  5.9462200E-05  6.2510902E-05   9724.653       2.674481    
  6.2510902E-05  6.7379500E-05   9359.478       2.666184    
  6.7379500E-05  7.6350902E-05   8937.562       1.973757    
  7.6350902E-05  8.6516899E-05   6642.042       1.469472    
  8.6516899E-05  9.8036500E-05   3900.930       1.195548    
  9.8036500E-05  1.1109000E-04   4708.545       1.838082    
  1.1109000E-04  1.1678600E-04   4483.306       2.344495    
  1.1678600E-04  1.2277300E-04   3299.014       2.533885    
  1.2277300E-04  1.2906799E-04   4475.446       2.280060    
  1.2906799E-04  1.3568600E-04   4445.272       2.588827    
  1.3568600E-04  1.4264201E-04   3254.700       2.917593    
  1.4264201E-04  1.4995600E-04   2597.631       1.986465    
  1.4995600E-04  1.5764400E-04   2354.314       2.236526    
  1.5764400E-04  1.6163501E-04   1879.695       3.642902    
  1.6163501E-04  1.6572700E-04   2430.083       2.868632    
  1.6572700E-04  1.6992200E-04   2414.869       4.283586    
  1.6992200E-04  1.7422400E-04   2407.949       5.167607    
  1.7422400E-04  1.8315599E-04   2483.942       2.466812    
  1.8315599E-04  1.9254700E-04   2311.797       3.165200    
  1.9254700E-04  2.0241900E-04   2157.833       2.929461    
  2.0241900E-04  2.1279699E-04   1658.626       3.962784    
  2.1279699E-04  2.2370800E-04   1657.372       2.449165    
  2.2370800E-04  2.3517800E-04   1645.788       2.465374    
  2.3517800E-04  2.4723500E-04   1610.531       2.914978    
  2.4723500E-04  2.5991100E-04   1724.563       2.025634    
  2.5991100E-04  2.7323700E-04   1716.144       2.683783    
  2.7323700E-04  2.8015400E-04   1450.744       4.641816    
  2.8015400E-04  2.8724599E-04   1216.786       4.483756    
  2.8724599E-04  2.9451799E-04   1181.966       3.490985    
  2.9451799E-04  3.0197401E-04   1194.969       3.339199    
  3.0197401E-04  3.0961799E-04   1213.317       3.640929    
  3.0961799E-04  3.1745600E-04   1103.341       4.849186    
  3.1745600E-04  3.3373301E-04   1154.318       2.696186    
  3.3373301E-04  3.5084400E-04   1154.851       2.811995    
  3.5084400E-04  3.6883200E-04   930.4400       2.333002    
  3.6883200E-04  3.8774201E-04   943.0040       2.311230    
  3.8774201E-04  4.0762199E-04   840.2578       3.928134    
  4.0762199E-04  4.2852099E-04   693.6934       3.906781    
  4.2852099E-04  4.5049199E-04   690.6307       4.124393    
  4.5049199E-04  4.7358900E-04   603.9674       2.102999    
  4.7358900E-04  4.9787102E-04   624.9480       3.568031    
  4.9787102E-04  5.1047403E-04   647.3464       4.983853    
  5.1047403E-04  5.2339700E-04   550.0197       7.390339    
  5.2339700E-04  5.3664698E-04   471.7278       3.671649    
  5.3664698E-04  5.5023201E-04   571.4586       3.956516    
  5.5023201E-04  5.7844300E-04   484.6145       4.347393    
  5.7844300E-04  6.0810102E-04   457.5457       3.014911    
  6.0810102E-04  6.3927902E-04   391.6378       2.173159    
  6.3927902E-04  6.7205500E-04   314.0225       3.012947    
  6.7205500E-04  7.0651202E-04   338.0944       3.588737    
  7.0651202E-04  7.4273598E-04   300.6729       4.880653    
  7.4273598E-04  7.8081700E-04   267.9248       4.634146    
  7.8081700E-04  8.2085002E-04   206.8696       5.284670    
  8.2085002E-04  8.6293602E-04   195.1670       3.660951    
  8.6293602E-04  9.0717903E-04   178.9312       4.027890    
  9.0717903E-04  9.5369201E-04   164.6187       4.271730    
  9.5369201E-04  9.6163998E-04   162.1647       9.620430    
  9.6163998E-04  9.7783399E-04   149.7875       8.006869    
  9.7783399E-04  1.0025901E-03   134.7787       6.244594    
  1.0025901E-03  1.0539900E-03   127.4045       4.244584    
  1.0539900E-03  1.1080300E-03   124.1792       4.737643    
  1.1080300E-03  1.1648400E-03   107.2059       4.233424    
  1.1648400E-03  1.1943300E-03   91.09538       6.076215    
  1.1943300E-03  1.2245600E-03   98.81039       6.670038    
  1.2245600E-03  1.2873500E-03   101.3438       3.535497    
  1.2873500E-03  1.3533500E-03   107.4130       3.660550    
  1.3533500E-03  1.4227401E-03   91.33104       6.754769    
  1.4227401E-03  1.4956900E-03   85.07908       3.454043    
  1.4956900E-03  1.5335500E-03   80.46223       6.449467    
  1.5335500E-03  1.5723699E-03   82.55906       6.604140    
  1.5723699E-03  1.6121800E-03   78.60077       3.534602    
  1.6121800E-03  1.6529900E-03   65.46463       6.156190    
  1.6529900E-03  1.7377400E-03   71.38330       4.825289    
  1.7377400E-03  1.8268300E-03   64.84586       5.783009    
  1.8268300E-03  1.8730800E-03   68.46385       5.998863    
  1.8730800E-03  1.9205000E-03   64.16929       7.175840    
  1.9205000E-03  1.9691200E-03   60.28582       4.995984    
  1.9691200E-03  2.0189700E-03   65.89738       7.846086    
  2.0189700E-03  2.1224800E-03   53.32621       6.389446    
  2.1224800E-03  2.2313001E-03   47.52420       6.473109    
  2.2313001E-03  2.2688799E-03   42.06665       9.543460    
  2.2688799E-03  2.3068599E-03   49.36639       8.319368    
  2.3068599E-03  2.3457000E-03   48.07101       7.318096    
  2.3457000E-03  2.3652499E-03   43.88831       11.87788    
  2.3652499E-03  2.3852000E-03   50.50503       12.63121    
  2.3852000E-03  2.4251300E-03   45.01750       11.57383    
  2.4251300E-03  2.4659701E-03   37.80254       9.293294    
  2.4659701E-03  2.5923999E-03   36.43559       6.849761    
  2.5923999E-03  2.7253199E-03   33.23273       5.548234    
  2.7253199E-03  2.8650500E-03   30.64504       4.836667    
  2.8650500E-03  3.0119400E-03   25.16445       3.913335    
  3.0119400E-03  3.0881900E-03   28.63336       5.046230    
  3.0881900E-03  3.1663701E-03   23.49858       7.125313    
  3.1663701E-03  3.2465300E-03   22.85238       8.140432    
  3.2465300E-03  3.3287101E-03   22.83786       9.982592    
  3.3287101E-03  3.4993801E-03   18.71906       6.478633    
  3.4993801E-03  3.6787901E-03   16.39316       7.569694    
  3.6787901E-03  3.8674099E-03   18.56651       7.050287    
  3.8674099E-03  4.0656999E-03   16.47698       5.050887    
  4.0656999E-03  4.2741499E-03   14.50082       6.899909    
  4.2741499E-03  4.4932901E-03   14.17262       5.296377    
  4.4932901E-03  4.6070400E-03   12.82911       8.944139    
  4.6070400E-03  4.7236700E-03   14.21428       10.61912    
  4.7236700E-03  4.8432499E-03   14.22549       8.363109    
  4.8432499E-03  4.9658502E-03   10.54583       9.416862    
  4.9658502E-03  5.2204598E-03   10.99584       7.541032    
  5.2204598E-03  5.4881200E-03   11.79856       5.201984    
  5.4881200E-03  5.7695000E-03   10.05525       7.434161    
  5.7695000E-03  5.9155500E-03   8.556214       10.61116    
  5.9155500E-03  6.0653100E-03   8.696453       10.58655    
  6.0653100E-03  6.2188501E-03   10.24529       9.207892    
  6.2188501E-03  6.3762800E-03   8.274829       9.115295    
  6.3762800E-03  6.5377001E-03   6.541005       11.75987    
  6.5377001E-03  6.5923799E-03   5.289126       18.32100    
  6.5923799E-03  6.6475999E-03   8.576095       16.87906    
  6.6475999E-03  6.7031998E-03   7.034410       19.20696    
  6.7031998E-03  6.8728901E-03   6.161621       10.50187    
  6.8728901E-03  7.0468802E-03   6.789412       10.51104    
  7.0468802E-03  7.2252699E-03   6.872095       9.438966    
  7.2252699E-03  7.4081798E-03   6.898934       14.57431    
  7.4081798E-03  7.5957198E-03   6.348508       11.19429    
  7.5957198E-03  7.7880099E-03   5.311773       7.378708    
  7.7880099E-03  7.9851598E-03   5.414466       9.195201    
  7.9851598E-03  8.1873098E-03   5.561407       10.91959    
  8.1873098E-03  8.3945701E-03   5.060844       11.02804    
  8.3945701E-03  8.6070802E-03   4.943076       10.63400    
  8.6070802E-03  8.8249696E-03   5.683750       14.50871    
  8.8249696E-03  9.0483697E-03   4.584314       15.35473    
  9.0483697E-03  9.2774397E-03   5.154169       8.978266    
  9.2774397E-03  9.5122904E-03   5.746789       9.532075    
  9.5122904E-03  9.7530996E-03   4.282238       13.29444    
  9.7530996E-03  9.9999998E-03   4.049881       10.66498    
  9.9999998E-03  1.0253200E-02   2.984502       17.24236    
  1.0253200E-02  1.0512700E-02   3.797477       11.96160    
  1.0512700E-02  1.0778800E-02   3.292170       11.90551    
  1.0778800E-02  1.1051700E-02   4.094894       10.26308    
  1.1051700E-02  1.1331500E-02   3.264615       12.14723    
  1.1331500E-02  1.1618300E-02   3.855515       7.979548    
  1.1618300E-02  1.1912500E-02   3.445851       15.08132    
  1.1912500E-02  1.2214000E-02   3.274045       6.342894    
  1.2214000E-02  1.2523200E-02   3.319709       13.51576    
  1.2523200E-02  1.2840200E-02   3.309007       10.48473    
  1.2840200E-02  1.3165300E-02   2.613169       16.04908    
  1.3165300E-02  1.3498600E-02   2.941251       14.50369    
  1.3498600E-02  1.3840300E-02   2.432487       19.86535    
  1.3840300E-02  1.4190700E-02   3.232564       9.096753    
  1.4190700E-02  1.4549900E-02   2.812406       10.60326    
  1.4549900E-02  1.4918300E-02   2.837545       11.51215    
  1.4918300E-02  1.5295900E-02   1.993999       13.98530    
  1.5295900E-02  1.5683100E-02   1.846303       14.67694    
  1.5683100E-02  1.6080100E-02   1.984190       13.93141    
  1.6080100E-02  1.6487200E-02   2.407956       13.57708    
  1.6487200E-02  1.6904600E-02   1.708595       21.35860    
  1.6904600E-02  1.7332500E-02   1.860155       17.28933    
  1.7332500E-02  1.7771300E-02   1.376442       11.29126    
  1.7771300E-02  1.8221200E-02   1.283939       17.31175    
  1.8221200E-02  1.8682500E-02   2.015142       7.792528    
  1.8682500E-02  1.9155400E-02   2.102310       9.895139    
  1.9155400E-02  1.9640300E-02   1.833009       12.17981    
  1.9640300E-02  2.0000000E-02   1.532746       16.60013    
