 # Detector n:  1  HeIInflux 
 # N. of energy intervals 260
  1.0000100E-14  2.0000000E-13  9.4121640E+10   12.77996    
  2.0000000E-13  2.9297300E-13  2.0907318E+11   14.07856    
  2.9297300E-13  4.2916701E-13  3.7140857E+11   10.02646    
  4.2916701E-13  6.2867300E-13  4.7057610E+11   6.422488    
  6.2867300E-13  9.2092198E-13  6.3618010E+11   4.592369    
  9.2092198E-13  1.3490300E-12  9.0565057E+11   3.828063    
  1.3490300E-12  1.9761499E-12  1.2016918E+12   1.963543    
  1.9761499E-12  2.8947901E-12  1.5086754E+12   1.580433    
  2.8947901E-12  4.2404799E-12  1.7699266E+12   1.015792    
  4.2404799E-12  6.2117499E-12  2.0111449E+12   1.168327    
  6.2117499E-12  9.0993801E-12  2.0503330E+12  0.9843040    
  9.0993801E-12  1.3329400E-11  1.8486434E+12  0.8355549    
  1.3329400E-11  1.9525799E-11  1.3715537E+12  0.8623784    
  1.9525799E-11  2.8602700E-11  8.1674994E+11  0.8591071    
  2.8602700E-11  4.1899099E-11  3.7391126E+11   1.000290    
  4.1899099E-11  6.1376598E-11  1.4766737E+11   1.313733    
  6.1376598E-11  8.9908601E-11  6.3834345E+10  0.7843227    
  8.9908601E-11  1.3170399E-10  3.2147118E+10   1.268548    
  1.3170399E-10  1.9292901E-10  1.8037232E+10  0.6415997    
  1.9292901E-10  2.8261499E-10  1.1143047E+10  0.7247320    
  2.8261499E-10  4.1399401E-10  7.3656694E+09  0.7058039    
  4.1399401E-10  5.3157900E-10  5.3139323E+09  0.6300157    
  5.3157900E-10  6.2506200E-10  4.3662449E+09  0.7967745    
  6.2506200E-10  6.8256001E-10  3.7795599E+09   1.042495    
  6.8256001E-10  8.3368101E-10  3.3001879E+09  0.9618031    
  8.3368101E-10  8.7642499E-10  2.9101614E+09   1.551184    
  8.7642499E-10  1.1253500E-09  2.4785413E+09  0.7166657    
  1.1253500E-09  1.4449800E-09  1.9399425E+09  0.6988999    
  1.4449800E-09  1.8553900E-09  1.4959885E+09  0.5851041    
  1.8553900E-09  2.3823701E-09  1.1640207E+09  0.8949100    
  2.3823701E-09  3.0590199E-09  9.1762739E+08  0.4719808    
  3.0590199E-09  3.9278598E-09  7.0382541E+08  0.7425631    
  3.9278598E-09  5.0434799E-09  5.4460858E+08  0.7501923    
  5.0434799E-09  6.4759500E-09  4.3220115E+08  0.4799491    
  6.4759500E-09  8.3152898E-09  3.3394307E+08  0.6138827    
  8.3152898E-09  1.0677000E-08  2.6340958E+08  0.6381684    
  1.0677000E-08  1.3709600E-08  2.0402091E+08  0.6032090    
  1.3709600E-08  1.7603501E-08  1.5917221E+08  0.8803514    
  1.7603501E-08  2.2603301E-08  1.2512302E+08  0.5605271    
  2.2603301E-08  2.9023200E-08  9.7601520E+07  0.8092799    
  2.9023200E-08  3.7266499E-08  7.6281200E+07  0.8872846    
  3.7266499E-08  4.7851199E-08  5.8712452E+07  0.5756986    
  4.7851199E-08  6.1442101E-08  4.5563464E+07  0.7374189    
  6.1442101E-08  7.8893301E-08  3.5440960E+07  0.4461962    
  7.8893301E-08  1.0130100E-07  2.7621186E+07  0.6026036    
  1.0130100E-07  1.3007300E-07  2.1403548E+07  0.4415307    
  1.3007300E-07  1.6701701E-07  1.6700081E+07  0.7767591    
  1.6701701E-07  2.1445400E-07  1.2837269E+07  0.6038207    
  2.1445400E-07  2.7536399E-07   9958739.      0.6506001    
  2.7536399E-07  3.5357499E-07   7731340.      0.4742293    
  3.5357499E-07  4.5399901E-07   6082364.      0.6488853    
  4.5399901E-07  5.8294700E-07   4591248.      0.4774604    
  5.8294700E-07  7.4851800E-07   3582880.      0.5757212    
  7.4851800E-07  9.6111603E-07   2771838.      0.7583244    
  9.6111603E-07  1.2341000E-06   2126202.      0.7410790    
  1.2341000E-06  1.3638900E-06   1754798.      0.8683984    
  1.3638900E-06  1.5073300E-06   1594526.       1.147425    
  1.5073300E-06  1.5846100E-06   1473839.       1.573018    
  1.5846100E-06  1.6658601E-06   1384185.       1.242959    
  1.6658601E-06  1.8410600E-06   1295441.       1.095521    
  1.8410600E-06  2.0346799E-06   1151782.      0.8594663    
  2.0346799E-06  2.2486699E-06   1045219.       1.285474    
  2.2486699E-06  2.4851699E-06   931191.5      0.7965002    
  2.4851699E-06  2.6125899E-06   859329.4       1.327662    
  2.6125899E-06  2.7465401E-06   821845.3       1.050642    
  2.7465401E-06  2.8634900E-06   798742.7       2.321600    
  2.8634900E-06  3.0353899E-06   734487.3       1.572114    
  3.0353899E-06  3.3546301E-06   693874.9       1.371892    
  3.3546301E-06  3.7074401E-06   618796.0      0.8617894    
  3.7074401E-06  4.0973500E-06   555089.3       1.002177    
  4.0973500E-06  4.3074201E-06   500968.7       1.162452    
  4.3074201E-06  4.5282700E-06   471035.8       2.130869    
  4.5282700E-06  5.0045101E-06   445132.3       1.165283    
  5.0045101E-06  5.5308401E-06   435609.0       1.024859    
  5.5308401E-06  6.2672698E-06   315433.2       1.000017    
  6.2672698E-06  7.1017398E-06   303183.1       1.246768    
  7.1017398E-06  8.0473301E-06   265981.4       1.010450    
  8.0473301E-06  9.1188203E-06   232381.1       1.077934    
  9.1188203E-06  1.0333000E-05   205188.4       1.255272    
  1.0333000E-05  1.1708800E-05   178450.7      0.9389574    
  1.1708800E-05  1.3267800E-05   152750.6      0.8150179    
  1.3267800E-05  1.5034400E-05   132929.0      0.7432468    
  1.5034400E-05  1.7036200E-05   114161.7      0.9720514    
  1.7036200E-05  1.9304500E-05   100699.8       1.052875    
  1.9304500E-05  2.1334799E-05   87448.23      0.9813038    
  2.1334799E-05  2.1874899E-05   81267.41       2.316738    
  2.1874899E-05  2.3578599E-05   76663.68       1.350865    
  2.3578599E-05  2.4175501E-05   75745.63       1.646503    
  2.4175501E-05  2.4787500E-05   69322.65       1.113261    
  2.4787500E-05  2.6058400E-05   68580.92       1.572714    
  2.6058400E-05  2.8087899E-05   65849.49       1.077140    
  2.8087899E-05  3.1827800E-05   70466.80      0.7634605    
  3.1827800E-05  3.4306700E-05   47419.63       1.787540    
  3.4306700E-05  3.5175199E-05   24020.66       2.957705    
  3.5175199E-05  3.6065601E-05   23557.40       3.605406    
  3.6065601E-05  4.0867701E-05   31180.97       1.264925    
  4.0867701E-05  4.6309200E-05   33408.17       1.332471    
  4.6309200E-05  5.2475199E-05   30218.83       1.196364    
  5.2475199E-05  5.6562199E-05   26836.73       1.490274    
  5.6562199E-05  5.9462200E-05   25185.80       2.078698    
  5.9462200E-05  6.2510902E-05   23205.95       1.946118    
  6.2510902E-05  6.7379500E-05   22776.11       1.442379    
  6.7379500E-05  7.6350902E-05   21349.41       1.140616    
  7.6350902E-05  8.6516899E-05   16390.54       1.211518    
  8.6516899E-05  9.8036500E-05   9756.969       1.437656    
  9.8036500E-05  1.1109000E-04   11244.02       1.201556    
  1.1109000E-04  1.1678600E-04   11303.65       2.002041    
  1.1678600E-04  1.2277300E-04   7933.841       2.877924    
  1.2277300E-04  1.2906799E-04   10753.64       2.132860    
  1.2906799E-04  1.3568600E-04   11160.56       1.305554    
  1.3568600E-04  1.4264201E-04   8244.837       2.180273    
  1.4264201E-04  1.4995600E-04   6589.625       2.099885    
  1.4995600E-04  1.5764400E-04   5934.242       3.101926    
  1.5764400E-04  1.6163501E-04   4909.209       3.470128    
  1.6163501E-04  1.6572700E-04   5742.636       3.014488    
  1.6572700E-04  1.6992200E-04   5697.600       3.675224    
  1.6992200E-04  1.7422400E-04   6272.595       2.930581    
  1.7422400E-04  1.8315599E-04   6170.922       2.449472    
  1.8315599E-04  1.9254700E-04   5837.046       1.665708    
  1.9254700E-04  2.0241900E-04   5243.187       1.870410    
  2.0241900E-04  2.1279699E-04   4327.462       2.245272    
  2.1279699E-04  2.2370800E-04   4391.891       2.939039    
  2.2370800E-04  2.3517800E-04   4149.069       1.884319    
  2.3517800E-04  2.4723500E-04   4189.396       1.828255    
  2.4723500E-04  2.5991100E-04   4274.618       2.289198    
  2.5991100E-04  2.7323700E-04   4096.579       1.760962    
  2.7323700E-04  2.8015400E-04   3625.524       3.013475    
  2.8015400E-04  2.8724599E-04   2880.759       4.014142    
  2.8724599E-04  2.9451799E-04   3093.030       4.143480    
  2.9451799E-04  3.0197401E-04   2957.593       3.271832    
  3.0197401E-04  3.0961799E-04   2889.066       2.466730    
  3.0961799E-04  3.1745600E-04   2718.231       2.293341    
  3.1745600E-04  3.3373301E-04   2819.194       1.916105    
  3.3373301E-04  3.5084400E-04   2757.816       1.880103    
  3.5084400E-04  3.6883200E-04   2287.713       2.538837    
  3.6883200E-04  3.8774201E-04   2209.994       1.763658    
  3.8774201E-04  4.0762199E-04   2054.957       2.249189    
  4.0762199E-04  4.2852099E-04   1797.680       2.671877    
  4.2852099E-04  4.5049199E-04   1524.276       1.977100    
  4.5049199E-04  4.7358900E-04   1545.077       1.797278    
  4.7358900E-04  4.9787102E-04   1416.545       2.785871    
  4.9787102E-04  5.1047403E-04   1451.182       4.121204    
  5.1047403E-04  5.2339700E-04   1383.886       2.926727    
  5.2339700E-04  5.3664698E-04   1107.510       3.742505    
  5.3664698E-04  5.5023201E-04   1174.043       2.861760    
  5.5023201E-04  5.7844300E-04   1078.137       2.312828    
  5.7844300E-04  6.0810102E-04   1058.197       2.463161    
  6.0810102E-04  6.3927902E-04   896.9789       3.059366    
  6.3927902E-04  6.7205500E-04   790.9351       2.266519    
  6.7205500E-04  7.0651202E-04   779.8546       3.035102    
  7.0651202E-04  7.4273598E-04   658.9337       3.042382    
  7.4273598E-04  7.8081700E-04   562.7506       1.747391    
  7.8081700E-04  8.2085002E-04   430.9964       1.772894    
  8.2085002E-04  8.6293602E-04   422.4948       2.834893    
  8.6293602E-04  9.0717903E-04   350.2349       2.765882    
  9.0717903E-04  9.5369201E-04   329.9059       2.843649    
  9.5369201E-04  9.6163998E-04   320.6918       8.221945    
  9.6163998E-04  9.7783399E-04   282.7330       5.952899    
  9.7783399E-04  1.0025901E-03   283.5211       3.230193    
  1.0025901E-03  1.0539900E-03   248.5002       2.522347    
  1.0539900E-03  1.1080300E-03   235.2090       2.959390    
  1.1080300E-03  1.1648400E-03   217.1072       3.486897    
  1.1648400E-03  1.1943300E-03   200.2758       4.755675    
  1.1943300E-03  1.2245600E-03   229.5611       3.422287    
  1.2245600E-03  1.2873500E-03   206.6121       3.232032    
  1.2873500E-03  1.3533500E-03   198.4691       1.886337    
  1.3533500E-03  1.4227401E-03   194.8644       2.941616    
  1.4227401E-03  1.4956900E-03   187.4147       2.636932    
  1.4956900E-03  1.5335500E-03   176.7052       4.422197    
  1.5335500E-03  1.5723699E-03   177.7611       5.691503    
  1.5723699E-03  1.6121800E-03   184.4038       4.219187    
  1.6121800E-03  1.6529900E-03   168.2382       4.172735    
  1.6529900E-03  1.7377400E-03   164.2994       3.700854    
  1.7377400E-03  1.8268300E-03   158.4568       2.988961    
  1.8268300E-03  1.8730800E-03   171.1312       3.547176    
  1.8730800E-03  1.9205000E-03   140.8188       4.539526    
  1.9205000E-03  1.9691200E-03   128.7564       4.295475    
  1.9691200E-03  2.0189700E-03   139.0009       3.533197    
  2.0189700E-03  2.1224800E-03   135.6920       3.165357    
  2.1224800E-03  2.2313001E-03   113.9411       3.925620    
  2.2313001E-03  2.2688799E-03   128.3849       6.402367    
  2.2688799E-03  2.3068599E-03   105.5261       5.807686    
  2.3068599E-03  2.3457000E-03   107.7674       7.457075    
  2.3457000E-03  2.3652499E-03   117.1108       10.81162    
  2.3652499E-03  2.3852000E-03   92.58645       10.47526    
  2.3852000E-03  2.4251300E-03   94.25351       6.498435    
  2.4251300E-03  2.4659701E-03   103.5005       6.748876    
  2.4659701E-03  2.5923999E-03   90.14945       3.008068    
  2.5923999E-03  2.7253199E-03   76.27896       4.302665    
  2.7253199E-03  2.8650500E-03   69.45647       3.737312    
  2.8650500E-03  3.0119400E-03   61.40915       3.621519    
  3.0119400E-03  3.0881900E-03   58.13516       6.584688    
  3.0881900E-03  3.1663701E-03   56.86588       7.017696    
  3.1663701E-03  3.2465300E-03   56.79183       7.135729    
  3.2465300E-03  3.3287101E-03   48.45106       9.806549    
  3.3287101E-03  3.4993801E-03   46.69942       3.915734    
  3.4993801E-03  3.6787901E-03   46.15462       3.865719    
  3.6787901E-03  3.8674099E-03   41.21949       3.818438    
  3.8674099E-03  4.0656999E-03   38.31791       4.832656    
  4.0656999E-03  4.2741499E-03   35.46317       4.081073    
  4.2741499E-03  4.4932901E-03   36.51950       3.679440    
  4.4932901E-03  4.6070400E-03   37.56411       5.377378    
  4.6070400E-03  4.7236700E-03   31.42751       7.726188    
  4.7236700E-03  4.8432499E-03   28.60227       7.497846    
  4.8432499E-03  4.9658502E-03   25.56644       8.413316    
  4.9658502E-03  5.2204598E-03   28.43686       6.011438    
  5.2204598E-03  5.4881200E-03   24.88754       5.220762    
  5.4881200E-03  5.7695000E-03   22.82292       5.583650    
  5.7695000E-03  5.9155500E-03   24.54591       6.587938    
  5.9155500E-03  6.0653100E-03   19.63375       6.353593    
  6.0653100E-03  6.2188501E-03   19.39147       7.247855    
  6.2188501E-03  6.3762800E-03   20.60764       8.411217    
  6.3762800E-03  6.5377001E-03   19.29329       6.978764    
  6.5377001E-03  6.5923799E-03   18.84659       13.43042    
  6.5923799E-03  6.6475999E-03   19.85141       17.32322    
  6.6475999E-03  6.7031998E-03   19.80039       18.10428    
  6.7031998E-03  6.8728901E-03   18.48154       6.615589    
  6.8728901E-03  7.0468802E-03   18.06277       10.28472    
  7.0468802E-03  7.2252699E-03   17.44401       9.493533    
  7.2252699E-03  7.4081798E-03   18.02344       8.207901    
  7.4081798E-03  7.5957198E-03   15.68922       6.747220    
  7.5957198E-03  7.7880099E-03   14.50437       10.89753    
  7.7880099E-03  7.9851598E-03   15.49966       6.955019    
  7.9851598E-03  8.1873098E-03   13.73160       8.204768    
  8.1873098E-03  8.3945701E-03   15.74522       6.203884    
  8.3945701E-03  8.6070802E-03   13.74941       8.235138    
  8.6070802E-03  8.8249696E-03   14.14601       6.345536    
  8.8249696E-03  9.0483697E-03   13.69985       8.991971    
  9.0483697E-03  9.2774397E-03   11.40070       8.839552    
  9.2774397E-03  9.5122904E-03   10.37337       7.982256    
  9.5122904E-03  9.7530996E-03   11.30384       12.21204    
  9.7530996E-03  9.9999998E-03   10.89408       9.584149    
  9.9999998E-03  1.0253200E-02   9.033408       10.31815    
  1.0253200E-02  1.0512700E-02   9.953005       7.211277    
  1.0512700E-02  1.0778800E-02   10.32895       6.275324    
  1.0778800E-02  1.1051700E-02   8.281953       12.72974    
  1.1051700E-02  1.1331500E-02   9.263354       8.975923    
  1.1331500E-02  1.1618300E-02   9.160953       9.281605    
  1.1618300E-02  1.1912500E-02   10.15259       8.198459    
  1.1912500E-02  1.2214000E-02   7.377517       8.735013    
  1.2214000E-02  1.2523200E-02   7.617867       10.37122    
  1.2523200E-02  1.2840200E-02   8.316750       10.19355    
  1.2840200E-02  1.3165300E-02   6.692690       8.016659    
  1.3165300E-02  1.3498600E-02   6.903094       11.71323    
  1.3498600E-02  1.3840300E-02   6.594272       10.75468    
  1.3840300E-02  1.4190700E-02   6.335385       8.782834    
  1.4190700E-02  1.4549900E-02   7.237920       7.662089    
  1.4549900E-02  1.4918300E-02   6.814199       10.84300    
  1.4918300E-02  1.5295900E-02   5.395006       12.78068    
  1.5295900E-02  1.5683100E-02   5.921628       7.095500    
  1.5683100E-02  1.6080100E-02   5.586194       7.441660    
  1.6080100E-02  1.6487200E-02   5.230232       8.110296    
  1.6487200E-02  1.6904600E-02   4.970648       12.15701    
  1.6904600E-02  1.7332500E-02   4.967438       12.37019    
  1.7332500E-02  1.7771300E-02   4.646669       9.851545    
  1.7771300E-02  1.8221200E-02   4.700683       9.977302    
  1.8221200E-02  1.8682500E-02   5.188342       11.26617    
  1.8682500E-02  1.9155400E-02   4.272748       10.80388    
  1.9155400E-02  1.9640300E-02   4.627548       12.71225    
  1.9640300E-02  2.0000000E-02   5.787135       7.146650    
