 # Detector n:  1  HeIInflux 
 # N. of energy intervals 260
  1.0000100E-14  2.0000000E-13  2.6394988E+11   6.649858    
  2.0000000E-13  2.9297300E-13  5.2195105E+11   8.573503    
  2.9297300E-13  4.2916701E-13  7.8723934E+11   4.847354    
  4.2916701E-13  6.2867300E-13  1.1871510E+12   3.246551    
  6.2867300E-13  9.2092198E-13  1.5697908E+12   2.669851    
  9.2092198E-13  1.3490300E-12  1.9889962E+12   1.660976    
  1.3490300E-12  1.9761499E-12  2.5953457E+12   1.351065    
  1.9761499E-12  2.8947901E-12  3.2461611E+12   1.279805    
  2.8947901E-12  4.2404799E-12  3.8073918E+12  0.8788052    
  4.2404799E-12  6.2117499E-12  4.2297952E+12  0.6430539    
  6.2117499E-12  9.0993801E-12  4.1269128E+12  0.5737096    
  9.0993801E-12  1.3329400E-11  3.6039953E+12  0.5845984    
  1.3329400E-11  1.9525799E-11  2.6447981E+12  0.5568473    
  1.9525799E-11  2.8602700E-11  1.5490913E+12  0.6621293    
  2.8602700E-11  4.1899099E-11  7.0275288E+11  0.8157057    
  4.1899099E-11  6.1376598E-11  2.7807587E+11  0.9327393    
  6.1376598E-11  8.9908601E-11  1.2185857E+11  0.8277964    
  8.9908601E-11  1.3170399E-10  6.2652457E+10  0.8119156    
  1.3170399E-10  1.9292901E-10  3.6314059E+10  0.6179371    
  1.9292901E-10  2.8261499E-10  2.3114906E+10  0.5495204    
  2.8261499E-10  4.1399401E-10  1.5475763E+10  0.5604596    
  4.1399401E-10  5.3157900E-10  1.1174917E+10  0.4928028    
  5.3157900E-10  6.2506200E-10  9.0109522E+09  0.5457445    
  6.2506200E-10  6.8256001E-10  7.9210788E+09  0.6675343    
  6.8256001E-10  8.3368101E-10  6.9486474E+09  0.6513060    
  8.3368101E-10  8.7642499E-10  6.0798735E+09   1.114159    
  8.7642499E-10  1.1253500E-09  5.2446444E+09  0.5105101    
  1.1253500E-09  1.4449800E-09  4.0808189E+09  0.5681609    
  1.4449800E-09  1.8553900E-09  3.1582436E+09  0.5296683    
  1.8553900E-09  2.3823701E-09  2.4711160E+09  0.5231804    
  2.3823701E-09  3.0590199E-09  1.9239795E+09  0.5655776    
  3.0590199E-09  3.9278598E-09  1.5077715E+09  0.3127305    
  3.9278598E-09  5.0434799E-09  1.1797924E+09  0.4631423    
  5.0434799E-09  6.4759500E-09  9.1805440E+08  0.4126960    
  6.4759500E-09  8.3152898E-09  7.2241158E+08  0.5102653    
  8.3152898E-09  1.0677000E-08  5.5805178E+08  0.5551566    
  1.0677000E-08  1.3709600E-08  4.4045328E+08  0.3241073    
  1.3709600E-08  1.7603501E-08  3.4377235E+08  0.3903325    
  1.7603501E-08  2.2603301E-08  2.6609899E+08  0.5065204    
  2.2603301E-08  2.9023200E-08  2.0800925E+08  0.3946290    
  2.9023200E-08  3.7266499E-08  1.6342370E+08  0.5826691    
  3.7266499E-08  4.7851199E-08  1.2712141E+08  0.5322580    
  4.7851199E-08  6.1442101E-08  9.9640576E+07  0.5792377    
  6.1442101E-08  7.8893301E-08  7.7805112E+07  0.5363144    
  7.8893301E-08  1.0130100E-07  6.0316672E+07  0.5759398    
  1.0130100E-07  1.3007300E-07  4.6827744E+07  0.6400198    
  1.3007300E-07  1.6701701E-07  3.6273596E+07  0.4393298    
  1.6701701E-07  2.1445400E-07  2.7955234E+07  0.3867826    
  2.1445400E-07  2.7536399E-07  2.1750024E+07  0.6742509    
  2.7536399E-07  3.5357499E-07  1.6928442E+07  0.3894505    
  3.5357499E-07  4.5399901E-07  1.3192282E+07  0.5061241    
  4.5399901E-07  5.8294700E-07  1.0201827E+07  0.5878224    
  5.8294700E-07  7.4851800E-07   7828912.      0.4365722    
  7.4851800E-07  9.6111603E-07   6039666.      0.4466930    
  9.6111603E-07  1.2341000E-06   4668510.      0.3962602    
  1.2341000E-06  1.3638900E-06   3886048.      0.7332682    
  1.3638900E-06  1.5073300E-06   3572289.      0.7868689    
  1.5073300E-06  1.5846100E-06   3248552.       1.148057    
  1.5846100E-06  1.6658601E-06   3114496.       1.306866    
  1.6658601E-06  1.8410600E-06   2848530.       1.011115    
  1.8410600E-06  2.0346799E-06   2561988.      0.7180433    
  2.0346799E-06  2.2486699E-06   2289562.      0.8763205    
  2.2486699E-06  2.4851699E-06   2084317.      0.9804676    
  2.4851699E-06  2.6125899E-06   1942441.      0.9590147    
  2.6125899E-06  2.7465401E-06   1796704.      0.8434509    
  2.7465401E-06  2.8634900E-06   1757191.       1.476047    
  2.8634900E-06  3.0353899E-06   1649450.       1.082333    
  3.0353899E-06  3.3546301E-06   1513644.      0.6929414    
  3.3546301E-06  3.7074401E-06   1368491.      0.9772534    
  3.7074401E-06  4.0973500E-06   1220817.      0.8894579    
  4.0973500E-06  4.3074201E-06   1120130.       1.104223    
  4.3074201E-06  4.5282700E-06   1050646.       1.080814    
  4.5282700E-06  5.0045101E-06   991405.1      0.9861376    
  5.0045101E-06  5.5308401E-06   967571.6      0.8154572    
  5.5308401E-06  6.2672698E-06   704731.1       1.066687    
  6.2672698E-06  7.1017398E-06   683855.9      0.7513283    
  7.1017398E-06  8.0473301E-06   592950.0      0.8624264    
  8.0473301E-06  9.1188203E-06   523111.4      0.7892825    
  9.1188203E-06  1.0333000E-05   455918.8      0.6725206    
  1.0333000E-05  1.1708800E-05   397342.1      0.5624068    
  1.1708800E-05  1.3267800E-05   343666.0      0.7232829    
  1.3267800E-05  1.5034400E-05   294283.6      0.8889717    
  1.5034400E-05  1.7036200E-05   259244.3      0.8410748    
  1.7036200E-05  1.9304500E-05   219474.3      0.8045270    
  1.9304500E-05  2.1334799E-05   195456.5       1.065546    
  2.1334799E-05  2.1874899E-05   189325.9       1.929851    
  2.1874899E-05  2.3578599E-05   172263.1       1.039108    
  2.3578599E-05  2.4175501E-05   160443.2       1.575680    
  2.4175501E-05  2.4787500E-05   159771.8       2.347374    
  2.4787500E-05  2.6058400E-05   151075.4      0.9688463    
  2.6058400E-05  2.8087899E-05   147441.0      0.9902001    
  2.8087899E-05  3.1827800E-05   158668.0      0.7391613    
  3.1827800E-05  3.4306700E-05   106472.9       1.001878    
  3.4306700E-05  3.5175199E-05   62447.86       2.289979    
  3.5175199E-05  3.6065601E-05   54173.04       2.665876    
  3.6065601E-05  4.0867701E-05   69562.56      0.6887392    
  4.0867701E-05  4.6309200E-05   75720.16      0.8540168    
  4.6309200E-05  5.2475199E-05   67698.83      0.8798003    
  5.2475199E-05  5.6562199E-05   60406.43       1.340816    
  5.6562199E-05  5.9462200E-05   56765.30       1.352751    
  5.9462200E-05  6.2510902E-05   54346.90       1.678486    
  6.2510902E-05  6.7379500E-05   51003.75       1.177695    
  6.7379500E-05  7.6350902E-05   48626.93      0.9942939    
  7.6350902E-05  8.6516899E-05   37621.81       1.025614    
  8.6516899E-05  9.8036500E-05   23302.96       1.569044    
  9.8036500E-05  1.1109000E-04   26131.52      0.9865877    
  1.1109000E-04  1.1678600E-04   25443.22       1.716142    
  1.1678600E-04  1.2277300E-04   18469.98       2.361878    
  1.2277300E-04  1.2906799E-04   24878.89       1.233743    
  1.2906799E-04  1.3568600E-04   24528.68       1.222043    
  1.3568600E-04  1.4264201E-04   18885.85       1.986046    
  1.4264201E-04  1.4995600E-04   15229.78       1.756524    
  1.4995600E-04  1.5764400E-04   13974.62       2.090364    
  1.5764400E-04  1.6163501E-04   11168.88       1.998662    
  1.6163501E-04  1.6572700E-04   13306.07       1.690424    
  1.6572700E-04  1.6992200E-04   13570.51       2.248896    
  1.6992200E-04  1.7422400E-04   13742.73       2.128330    
  1.7422400E-04  1.8315599E-04   13869.88       1.447410    
  1.8315599E-04  1.9254700E-04   13869.70      0.9365658    
  1.9254700E-04  2.0241900E-04   12110.11       1.259763    
  2.0241900E-04  2.1279699E-04   9969.499       1.102338    
  2.1279699E-04  2.2370800E-04   10046.81       1.138613    
  2.2370800E-04  2.3517800E-04   9708.433       1.661585    
  2.3517800E-04  2.4723500E-04   9670.504       2.129579    
  2.4723500E-04  2.5991100E-04   9305.355       1.404436    
  2.5991100E-04  2.7323700E-04   9842.749       1.062652    
  2.7323700E-04  2.8015400E-04   8733.998       2.516917    
  2.8015400E-04  2.8724599E-04   6915.563       3.289688    
  2.8724599E-04  2.9451799E-04   6504.579       1.587784    
  2.9451799E-04  3.0197401E-04   6781.314       2.525674    
  3.0197401E-04  3.0961799E-04   6867.860       2.353749    
  3.0961799E-04  3.1745600E-04   6204.992       2.637567    
  3.1745600E-04  3.3373301E-04   6442.864       1.563801    
  3.3373301E-04  3.5084400E-04   6160.926       1.835565    
  3.5084400E-04  3.6883200E-04   5135.128       2.017095    
  3.6883200E-04  3.8774201E-04   4821.972       1.643183    
  3.8774201E-04  4.0762199E-04   4704.073       1.915361    
  4.0762199E-04  4.2852099E-04   3723.144       2.441628    
  4.2852099E-04  4.5049199E-04   3536.941       1.813723    
  4.5049199E-04  4.7358900E-04   3464.937       1.928466    
  4.7358900E-04  4.9787102E-04   3239.424       1.789844    
  4.9787102E-04  5.1047403E-04   3152.923       2.833146    
  5.1047403E-04  5.2339700E-04   3171.334       1.784873    
  5.2339700E-04  5.3664698E-04   2523.661       3.057428    
  5.3664698E-04  5.5023201E-04   2731.987       1.924265    
  5.5023201E-04  5.7844300E-04   2473.227       2.443124    
  5.7844300E-04  6.0810102E-04   2246.871       1.721905    
  6.0810102E-04  6.3927902E-04   1897.906       2.157912    
  6.3927902E-04  6.7205500E-04   1637.258       1.660234    
  6.7205500E-04  7.0651202E-04   1619.752       1.607583    
  7.0651202E-04  7.4273598E-04   1397.133       2.824424    
  7.4273598E-04  7.8081700E-04   1207.131       1.992507    
  7.8081700E-04  8.2085002E-04   904.4277       2.084949    
  8.2085002E-04  8.6293602E-04   835.8223       2.637552    
  8.6293602E-04  9.0717903E-04   755.4010       2.067112    
  9.0717903E-04  9.5369201E-04   659.8807       2.016998    
  9.5369201E-04  9.6163998E-04   582.3043       4.177465    
  9.6163998E-04  9.7783399E-04   623.7974       4.287157    
  9.7783399E-04  1.0025901E-03   564.7722       2.914566    
  1.0025901E-03  1.0539900E-03   521.5561       1.905265    
  1.0539900E-03  1.1080300E-03   489.2020       2.355521    
  1.1080300E-03  1.1648400E-03   451.7145       2.454624    
  1.1648400E-03  1.1943300E-03   429.8298       1.585662    
  1.1943300E-03  1.2245600E-03   431.7867       3.929503    
  1.2245600E-03  1.2873500E-03   415.8445       1.953075    
  1.2873500E-03  1.3533500E-03   398.1432       2.016022    
  1.3533500E-03  1.4227401E-03   387.5948       2.147894    
  1.4227401E-03  1.4956900E-03   385.5320       1.943797    
  1.4956900E-03  1.5335500E-03   392.9124       3.042086    
  1.5335500E-03  1.5723699E-03   349.3596       2.401835    
  1.5723699E-03  1.6121800E-03   358.3222       4.140422    
  1.6121800E-03  1.6529900E-03   361.6338       3.263384    
  1.6529900E-03  1.7377400E-03   345.8207       2.960021    
  1.7377400E-03  1.8268300E-03   315.2139       3.141816    
  1.8268300E-03  1.8730800E-03   315.5818       3.321406    
  1.8730800E-03  1.9205000E-03   282.7391       3.025838    
  1.9205000E-03  1.9691200E-03   280.7159       3.734366    
  1.9691200E-03  2.0189700E-03   292.8944       2.961179    
  2.0189700E-03  2.1224800E-03   264.4569       2.347275    
  2.1224800E-03  2.2313001E-03   244.3909       2.465120    
  2.2313001E-03  2.2688799E-03   239.0057       4.777580    
  2.2688799E-03  2.3068599E-03   220.1717       5.713727    
  2.3068599E-03  2.3457000E-03   213.0400       3.749634    
  2.3457000E-03  2.3652499E-03   212.5065       8.172498    
  2.3652499E-03  2.3852000E-03   239.4443       6.631717    
  2.3852000E-03  2.4251300E-03   223.7037       5.685291    
  2.4251300E-03  2.4659701E-03   205.6327       3.875871    
  2.4659701E-03  2.5923999E-03   176.1310       3.623180    
  2.5923999E-03  2.7253199E-03   165.0545       3.475405    
  2.7253199E-03  2.8650500E-03   141.3112       2.615958    
  2.8650500E-03  3.0119400E-03   138.4706       3.062584    
  3.0119400E-03  3.0881900E-03   128.0918       3.801146    
  3.0881900E-03  3.1663701E-03   121.6152       3.878875    
  3.1663701E-03  3.2465300E-03   105.9910       3.296185    
  3.2465300E-03  3.3287101E-03   98.27608       4.397686    
  3.3287101E-03  3.4993801E-03   101.3044       4.654563    
  3.4993801E-03  3.6787901E-03   100.2782       3.927239    
  3.6787901E-03  3.8674099E-03   93.87273       3.877076    
  3.8674099E-03  4.0656999E-03   80.08479       3.744724    
  4.0656999E-03  4.2741499E-03   80.15575       4.688562    
  4.2741499E-03  4.4932901E-03   68.48142       5.231077    
  4.4932901E-03  4.6070400E-03   68.79790       5.665251    
  4.6070400E-03  4.7236700E-03   69.80746       4.208278    
  4.7236700E-03  4.8432499E-03   64.88142       4.812898    
  4.8432499E-03  4.9658502E-03   62.89257       7.556455    
  4.9658502E-03  5.2204598E-03   60.52120       3.087692    
  5.2204598E-03  5.4881200E-03   58.72086       4.411715    
  5.4881200E-03  5.7695000E-03   52.61873       3.712353    
  5.7695000E-03  5.9155500E-03   45.94728       5.935786    
  5.9155500E-03  6.0653100E-03   46.51285       5.394408    
  6.0653100E-03  6.2188501E-03   49.28476       4.153700    
  6.2188501E-03  6.3762800E-03   51.16037       5.387720    
  6.3762800E-03  6.5377001E-03   40.01371       7.797301    
  6.5377001E-03  6.5923799E-03   48.88610       11.22315    
  6.5923799E-03  6.6475999E-03   46.68098       7.132837    
  6.6475999E-03  6.7031998E-03   38.27771       7.504553    
  6.7031998E-03  6.8728901E-03   43.86074       6.219289    
  6.8728901E-03  7.0468802E-03   35.35324       5.206459    
  7.0468802E-03  7.2252699E-03   37.26264       4.931346    
  7.2252699E-03  7.4081798E-03   33.26738       5.766993    
  7.4081798E-03  7.5957198E-03   36.16478       5.899575    
  7.5957198E-03  7.7880099E-03   35.31898       4.416844    
  7.7880099E-03  7.9851598E-03   32.46048       7.429371    
  7.9851598E-03  8.1873098E-03   28.64442       7.735761    
  8.1873098E-03  8.3945701E-03   30.75617       7.146389    
  8.3945701E-03  8.6070802E-03   28.45376       6.814551    
  8.6070802E-03  8.8249696E-03   31.14084       5.175002    
  8.8249696E-03  9.0483697E-03   26.63582       5.184247    
  9.0483697E-03  9.2774397E-03   27.27107       5.314250    
  9.2774397E-03  9.5122904E-03   25.72711       6.130878    
  9.5122904E-03  9.7530996E-03   25.66613       6.317421    
  9.7530996E-03  9.9999998E-03   23.81637       4.085909    
  9.9999998E-03  1.0253200E-02   24.00672       5.475726    
  1.0253200E-02  1.0512700E-02   25.24275       6.294196    
  1.0512700E-02  1.0778800E-02   21.18819       8.098022    
  1.0778800E-02  1.1051700E-02   23.42657       5.660238    
  1.1051700E-02  1.1331500E-02   18.98988       8.280483    
  1.1331500E-02  1.1618300E-02   18.73950       4.337863    
  1.1618300E-02  1.1912500E-02   20.49359       6.136185    
  1.1912500E-02  1.2214000E-02   19.13900       5.897163    
  1.2214000E-02  1.2523200E-02   17.87241       10.09050    
  1.2523200E-02  1.2840200E-02   17.77133       6.770131    
  1.2840200E-02  1.3165300E-02   17.77503       7.129316    
  1.3165300E-02  1.3498600E-02   17.47259       7.197416    
  1.3498600E-02  1.3840300E-02   18.10595       4.580891    
  1.3840300E-02  1.4190700E-02   13.84130       6.559314    
  1.4190700E-02  1.4549900E-02   13.98020       7.368685    
  1.4549900E-02  1.4918300E-02   14.78846       5.713427    
  1.4918300E-02  1.5295900E-02   12.82391       5.055209    
  1.5295900E-02  1.5683100E-02   13.86499       6.514564    
  1.5683100E-02  1.6080100E-02   12.51704       5.555676    
  1.6080100E-02  1.6487200E-02   13.78359       6.883789    
  1.6487200E-02  1.6904600E-02   12.59306       6.808788    
  1.6904600E-02  1.7332500E-02   11.25525       8.388449    
  1.7332500E-02  1.7771300E-02   11.32639       4.402884    
  1.7771300E-02  1.8221200E-02   10.22218       11.62093    
  1.8221200E-02  1.8682500E-02   9.067008       7.629259    
  1.8682500E-02  1.9155400E-02   10.33168       6.603468    
  1.9155400E-02  1.9640300E-02   9.898500       7.719922    
  1.9640300E-02  2.0000000E-02   8.183226       7.144412    
