 # Detector n:            1   HeIInflux 
 # N. of energy intervals         260
  1.0000100E-14  2.0000000E-13  9.2211659E+10  0.9506804    
  2.0000000E-13  2.9297300E-13  2.0562236E+11  0.9249982    
  2.9297300E-13  4.2916701E-13  2.9397330E+11  0.6455688    
  4.2916701E-13  6.2867300E-13  4.0688012E+11  0.4584982    
  6.2867300E-13  9.2092198E-13  5.6166285E+11  0.3308349    
  9.2092198E-13  1.3490300E-12  7.5510638E+11  0.2350580    
  1.3490300E-12  1.9761499E-12  9.7208402E+11  0.1803801    
  1.9761499E-12  2.8947901E-12  1.2176434E+12  0.1319461    
  2.8947901E-12  4.2404799E-12  1.4426897E+12  0.1085996    
  4.2404799E-12  6.2117499E-12  1.5938273E+12  9.0365507E-02
  6.2117499E-12  9.0993801E-12  1.6105121E+12  8.1691906E-02
  9.0993801E-12  1.3329400E-11  1.4495108E+12  7.5223260E-02
  1.3329400E-11  1.9525799E-11  1.1257376E+12  7.3017500E-02
  1.9525799E-11  2.8602700E-11  7.2848638E+11  7.3586717E-02
  2.8602700E-11  4.1899099E-11  3.9175202E+11  7.8455299E-02
  4.1899099E-11  6.1376598E-11  1.8883761E+11  8.5378334E-02
  6.1376598E-11  8.9908601E-11  8.3233784E+10  9.9120162E-02
  8.9908601E-11  1.3170399E-10  3.1221242E+10  0.1279091    
  1.3170399E-10  1.9292901E-10  1.0991466E+10  0.1692634    
  1.9292901E-10  2.8261499E-10  4.7888005E+09  0.2174104    
  2.8261499E-10  4.1399401E-10  2.7441779E+09  0.2316508    
  4.1399401E-10  5.3157900E-10  1.8966839E+09  0.2813996    
  5.3157900E-10  6.2506200E-10  1.4931955E+09  0.3633082    
  6.2506200E-10  6.8256001E-10  1.3266136E+09  0.4847539    
  6.8256001E-10  8.3368101E-10  1.1166458E+09  0.3306209    
  8.3368101E-10  8.7642499E-10  9.7418291E+08  0.6543947    
  8.7642499E-10  1.1253500E-09  8.2481312E+08  0.3031014    
  1.1253500E-09  1.4449800E-09  6.2670976E+08  0.3160986    
  1.4449800E-09  1.8553900E-09  4.8140064E+08  0.2972395    
  1.8553900E-09  2.3823701E-09  3.6807942E+08  0.2949650    
  2.3823701E-09  3.0590199E-09  2.8151754E+08  0.3243942    
  3.0590199E-09  3.9278598E-09  2.1546416E+08  0.3139972    
  3.9278598E-09  5.0434799E-09  1.6526915E+08  0.3239766    
  5.0434799E-09  6.4759500E-09  1.2775194E+08  0.3163048    
  6.4759500E-09  8.3152898E-09  9.8596824E+07  0.3164841    
  8.3152898E-09  1.0677000E-08  7.5730256E+07  0.3049640    
  1.0677000E-08  1.3709600E-08  5.7587720E+07  0.3323683    
  1.3709600E-08  1.7603501E-08  4.4516428E+07  0.3308974    
  1.7603501E-08  2.2603301E-08  3.3968812E+07  0.3320333    
  2.2603301E-08  2.9023200E-08  2.5882316E+07  0.3373333    
  2.9023200E-08  3.7266499E-08  1.9893260E+07  0.3502878    
  3.7266499E-08  4.7851199E-08  1.5263562E+07  0.3306412    
  4.7851199E-08  6.1442101E-08  1.1659295E+07  0.3474370    
  6.1442101E-08  7.8893301E-08   8903881.      0.3389052    
  7.8893301E-08  1.0130100E-07   6765872.      0.3506747    
  1.0130100E-07  1.3007300E-07   5171204.      0.3530959    
  1.3007300E-07  1.6701701E-07   3932583.      0.3596230    
  1.6701701E-07  2.1445400E-07   2946964.      0.3634917    
  2.1445400E-07  2.7536399E-07   2246186.      0.3712513    
  2.7536399E-07  3.5357499E-07   1713679.      0.3713308    
  3.5357499E-07  4.5399901E-07   1266593.      0.3890367    
  4.5399901E-07  5.8294700E-07   975271.4      0.3863510    
  5.8294700E-07  7.4851800E-07   740618.8      0.3893956    
  7.4851800E-07  9.6111603E-07   559743.1      0.4111450    
  9.6111603E-07  1.2341000E-06   420525.9      0.4129668    
  1.2341000E-06  1.3638900E-06   342877.4      0.6352481    
  1.3638900E-06  1.5073300E-06   307413.3      0.6043992    
  1.5073300E-06  1.5846100E-06   285132.7      0.8561609    
  1.5846100E-06  1.6658601E-06   267440.8      0.9010148    
  1.6658601E-06  1.8410600E-06   246850.2      0.6400573    
  1.8410600E-06  2.0346799E-06   227090.6      0.6429443    
  2.0346799E-06  2.2486699E-06   179535.0      0.6670713    
  2.2486699E-06  2.4851699E-06   169693.1      0.6748666    
  2.4851699E-06  2.6125899E-06   153307.0      0.9193937    
  2.6125899E-06  2.7465401E-06   139878.2      0.9534158    
  2.7465401E-06  2.8634900E-06   140253.4       1.002124    
  2.8634900E-06  3.0353899E-06   131978.0      0.8594221    
  3.0353899E-06  3.3546301E-06   121101.9      0.6790622    
  3.3546301E-06  3.7074401E-06   107430.5      0.6684801    
  3.7074401E-06  4.0973500E-06   95194.14      0.6836789    
  4.0973500E-06  4.3074201E-06   86606.89      0.9665834    
  4.3074201E-06  4.5282700E-06   82330.47      0.9658269    
  4.5282700E-06  5.0045101E-06   75801.07      0.7300650    
  5.0045101E-06  5.5308401E-06   73571.05      0.6822224    
  5.5308401E-06  6.2672698E-06   48138.26      0.6802374    
  6.2672698E-06  7.1017398E-06   50093.05      0.6592835    
  7.1017398E-06  8.0473301E-06   43273.41      0.6573009    
  8.0473301E-06  9.1188203E-06   37031.54      0.6905431    
  9.1188203E-06  1.0333000E-05   31669.85      0.6800039    
  1.0333000E-05  1.1708800E-05   27719.19      0.6752161    
  1.1708800E-05  1.3267800E-05   24087.07      0.6869508    
  1.3267800E-05  1.5034400E-05   20038.32      0.7063736    
  1.5034400E-05  1.7036200E-05   16966.55      0.6944993    
  1.7036200E-05  1.9304500E-05   14545.29      0.6930578    
  1.9304500E-05  2.1334799E-05   12663.41      0.8012462    
  2.1334799E-05  2.1874899E-05   12267.41       1.564400    
  2.1874899E-05  2.3578599E-05   11106.50      0.9628206    
  2.3578599E-05  2.4175501E-05   10726.22       1.627134    
  2.4175501E-05  2.4787500E-05   10245.09       1.618183    
  2.4787500E-05  2.6058400E-05   9741.144       1.195389    
  2.6058400E-05  2.8087899E-05   9495.193      0.9401597    
  2.8087899E-05  3.1827800E-05   9964.923      0.6819910    
  3.1827800E-05  3.4306700E-05   5585.646       1.104509    
  3.4306700E-05  3.5175199E-05   2640.397       2.585031    
  3.5175199E-05  3.6065601E-05   2544.204       2.713207    
  3.6065601E-05  4.0867701E-05   3480.253       1.020389    
  4.0867701E-05  4.6309200E-05   4297.247      0.8301577    
  4.6309200E-05  5.2475199E-05   3913.122      0.8255863    
  5.2475199E-05  5.6562199E-05   3488.528       1.054029    
  5.6562199E-05  5.9462200E-05   3290.279       1.293040    
  5.9462200E-05  6.2510902E-05   3131.823       1.328385    
  6.2510902E-05  6.7379500E-05   2954.722       1.123921    
  6.7379500E-05  7.6350902E-05   2930.437      0.8013970    
  7.6350902E-05  8.6516899E-05   1984.348      0.9197724    
  8.6516899E-05  9.8036500E-05   1098.907       1.127577    
  9.8036500E-05  1.1109000E-04   1432.446      0.9545633    
  1.1109000E-04  1.1678600E-04   1450.590       1.408177    
  1.1678600E-04  1.2277300E-04   973.2056       1.680196    
  1.2277300E-04  1.2906799E-04   1458.425       1.346218    
  1.2906799E-04  1.3568600E-04   1451.917       1.302809    
  1.3568600E-04  1.4264201E-04   1028.306       1.551139    
  1.4264201E-04  1.4995600E-04   746.4610       1.670270    
  1.4995600E-04  1.5764400E-04   689.5952       1.706472    
  1.5764400E-04  1.6163501E-04   563.9904       2.589125    
  1.6163501E-04  1.6572700E-04   675.9273       2.403043    
  1.6572700E-04  1.6992200E-04   727.4244       2.257945    
  1.6992200E-04  1.7422400E-04   735.5095       2.245638    
  1.7422400E-04  1.8315599E-04   749.1945       1.552300    
  1.8315599E-04  1.9254700E-04   761.4453       1.495756    
  1.9254700E-04  2.0241900E-04   696.2539       1.494243    
  2.0241900E-04  2.1279699E-04   531.7064       1.568524    
  2.1279699E-04  2.2370800E-04   540.0267       1.663737    
  2.2370800E-04  2.3517800E-04   542.8230       1.608894    
  2.3517800E-04  2.4723500E-04   535.7407       1.588403    
  2.4723500E-04  2.5991100E-04   535.3295       1.561945    
  2.5991100E-04  2.7323700E-04   550.7521       1.403365    
  2.7323700E-04  2.8015400E-04   464.2807       2.175121    
  2.8015400E-04  2.8724599E-04   389.6314       2.250599    
  2.8724599E-04  2.9451799E-04   405.3997       2.184301    
  2.9451799E-04  3.0197401E-04   395.7525       2.279845    
  3.0197401E-04  3.0961799E-04   390.3041       2.318530    
  3.0961799E-04  3.1745600E-04   348.5522       2.328355    
  3.1745600E-04  3.3373301E-04   368.2350       1.561309    
  3.3373301E-04  3.5084400E-04   357.9226       1.539852    
  3.5084400E-04  3.6883200E-04   305.7033       1.629115    
  3.6883200E-04  3.8774201E-04   286.7811       1.593644    
  3.8774201E-04  4.0762199E-04   274.5652       1.558235    
  4.0762199E-04  4.2852099E-04   229.7411       1.674671    
  4.2852099E-04  4.5049199E-04   216.6761       1.772570    
  4.5049199E-04  4.7358900E-04   210.0665       1.660729    
  4.7358900E-04  4.9787102E-04   206.8142       1.734331    
  4.9787102E-04  5.1047403E-04   204.6782       2.255036    
  5.1047403E-04  5.2339700E-04   188.9768       2.244287    
  5.2339700E-04  5.3664698E-04   158.8815       2.371433    
  5.3664698E-04  5.5023201E-04   170.3374       2.296627    
  5.5023201E-04  5.7844300E-04   153.1305       1.693294    
  5.7844300E-04  6.0810102E-04   147.7250       1.686586    
  6.0810102E-04  6.3927902E-04   135.6085       1.704594    
  6.3927902E-04  6.7205500E-04   111.8572       1.825427    
  6.7205500E-04  7.0651202E-04   109.0406       1.712255    
  7.0651202E-04  7.4273598E-04   97.30354       1.638377    
  7.4273598E-04  7.8081700E-04   85.32970       1.725101    
  7.8081700E-04  8.2085002E-04   67.52143       1.749309    
  8.2085002E-04  8.6293602E-04   62.78064       1.813923    
  8.6293602E-04  9.0717903E-04   57.71634       1.757320    
  9.0717903E-04  9.5369201E-04   51.13413       1.802140    
  9.5369201E-04  9.6163998E-04   48.09426       4.212066    
  9.6163998E-04  9.7783399E-04   46.16538       3.056314    
  9.7783399E-04  1.0025901E-03   41.45165       2.399625    
  1.0025901E-03  1.0539900E-03   41.75163       1.786516    
  1.0539900E-03  1.1080300E-03   41.46879       1.723712    
  1.1080300E-03  1.1648400E-03   39.43433       1.699480    
  1.1648400E-03  1.1943300E-03   35.64896       2.387147    
  1.1943300E-03  1.2245600E-03   38.35406       2.313414    
  1.2245600E-03  1.2873500E-03   38.03924       1.671911    
  1.2873500E-03  1.3533500E-03   35.81215       1.667366    
  1.3533500E-03  1.4227401E-03   37.03016       1.662912    
  1.4227401E-03  1.4956900E-03   36.99443       1.739493    
  1.4956900E-03  1.5335500E-03   35.24989       2.361390    
  1.5335500E-03  1.5723699E-03   35.99766       2.306067    
  1.5723699E-03  1.6121800E-03   37.02972       2.359199    
  1.6121800E-03  1.6529900E-03   36.41791       2.387384    
  1.6529900E-03  1.7377400E-03   36.37518       1.704790    
  1.7377400E-03  1.8268300E-03   35.30500       1.665172    
  1.8268300E-03  1.8730800E-03   34.55323       2.421145    
  1.8730800E-03  1.9205000E-03   34.03044       2.402679    
  1.9205000E-03  1.9691200E-03   33.15426       2.374190    
  1.9691200E-03  2.0189700E-03   31.75288       2.451389    
  2.0189700E-03  2.1224800E-03   32.66620       1.772470    
  2.1224800E-03  2.2313001E-03   30.32451       1.717772    
  2.2313001E-03  2.2688799E-03   29.56636       3.016214    
  2.2688799E-03  2.3068599E-03   30.49020       2.888079    
  2.3068599E-03  2.3457000E-03   31.71793       2.850638    
  2.3457000E-03  2.3652499E-03   29.34363       4.256234    
  2.3652499E-03  2.3852000E-03   31.24608       4.065405    
  2.3852000E-03  2.4251300E-03   27.61602       3.011505    
  2.4251300E-03  2.4659701E-03   29.59091       3.058508    
  2.4659701E-03  2.5923999E-03   24.93987       1.840353    
  2.5923999E-03  2.7253199E-03   23.85322       1.857916    
  2.7253199E-03  2.8650500E-03   22.58223       1.810403    
  2.8650500E-03  3.0119400E-03   20.45747       1.887450    
  3.0119400E-03  3.0881900E-03   20.39741       2.610798    
  3.0881900E-03  3.1663701E-03   20.08441       2.746719    
  3.1663701E-03  3.2465300E-03   18.75498       2.743042    
  3.2465300E-03  3.3287101E-03   17.35023       2.690495    
  3.3287101E-03  3.4993801E-03   16.86195       1.982220    
  3.4993801E-03  3.6787901E-03   16.10768       1.971296    
  3.6787901E-03  3.8674099E-03   15.32310       2.024233    
  3.8674099E-03  4.0656999E-03   15.69500       2.033252    
  4.0656999E-03  4.2741499E-03   14.74350       1.990415    
  4.2741499E-03  4.4932901E-03   13.14025       2.043715    
  4.4932901E-03  4.6070400E-03   13.14317       2.788676    
  4.6070400E-03  4.7236700E-03   13.07157       2.702586    
  4.7236700E-03  4.8432499E-03   12.74269       2.928031    
  4.8432499E-03  4.9658502E-03   12.70438       2.608850    
  4.9658502E-03  5.2204598E-03   11.34402       2.014225    
  5.2204598E-03  5.4881200E-03   11.45899       2.031213    
  5.4881200E-03  5.7695000E-03   10.60239       2.070870    
  5.7695000E-03  5.9155500E-03   10.53422       2.936328    
  5.9155500E-03  6.0653100E-03   10.14500       2.791886    
  6.0653100E-03  6.2188501E-03   9.994311       2.825681    
  6.2188501E-03  6.3762800E-03   9.474046       2.944863    
  6.3762800E-03  6.5377001E-03   9.056530       3.075921    
  6.5377001E-03  6.5923799E-03   9.171231       4.928198    
  6.5923799E-03  6.6475999E-03   8.910372       5.018533    
  6.6475999E-03  6.7031998E-03   9.209128       4.803517    
  6.7031998E-03  6.8728901E-03   8.717649       2.984313    
  6.8728901E-03  7.0468802E-03   8.300142       2.922274    
  7.0468802E-03  7.2252699E-03   7.677668       3.010158    
  7.2252699E-03  7.4081798E-03   7.605620       2.899964    
  7.4081798E-03  7.5957198E-03   7.670296       2.906015    
  7.5957198E-03  7.7880099E-03   7.004339       3.020485    
  7.7880099E-03  7.9851598E-03   6.771346       3.091473    
  7.9851598E-03  8.1873098E-03   6.778409       3.070087    
  8.1873098E-03  8.3945701E-03   6.813989       3.068875    
  8.3945701E-03  8.6070802E-03   6.421187       3.213124    
  8.6070802E-03  8.8249696E-03   6.130554       3.018435    
  8.8249696E-03  9.0483697E-03   6.092431       3.202207    
  9.0483697E-03  9.2774397E-03   5.988676       3.188840    
  9.2774397E-03  9.5122904E-03   5.602188       3.156825    
  9.5122904E-03  9.7530996E-03   5.710565       2.945121    
  9.7530996E-03  9.9999998E-03   5.528552       3.036322    
  9.9999998E-03  1.0253200E-02   5.259350       3.185135    
  1.0253200E-02  1.0512700E-02   5.035753       3.142287    
  1.0512700E-02  1.0778800E-02   5.092078       3.092420    
  1.0778800E-02  1.1051700E-02   5.035078       3.088482    
  1.1051700E-02  1.1331500E-02   4.649296       3.238736    
  1.1331500E-02  1.1618300E-02   4.475676       3.167554    
  1.1618300E-02  1.1912500E-02   4.518431       3.074207    
  1.1912500E-02  1.2214000E-02   4.362607       3.082716    
  1.2214000E-02  1.2523200E-02   4.246227       3.068165    
  1.2523200E-02  1.2840200E-02   4.184410       3.119854    
  1.2840200E-02  1.3165300E-02   4.419479       3.156616    
  1.3165300E-02  1.3498600E-02   3.844081       3.126590    
  1.3498600E-02  1.3840300E-02   3.740175       3.167096    
  1.3840300E-02  1.4190700E-02   3.894492       3.144990    
  1.4190700E-02  1.4549900E-02   3.660895       3.243875    
  1.4549900E-02  1.4918300E-02   3.437057       3.311306    
  1.4918300E-02  1.5295900E-02   3.266370       3.217169    
  1.5295900E-02  1.5683100E-02   3.408669       3.156285    
  1.5683100E-02  1.6080100E-02   3.386749       3.212867    
  1.6080100E-02  1.6487200E-02   3.045995       3.408563    
  1.6487200E-02  1.6904600E-02   3.083817       3.359065    
  1.6904600E-02  1.7332500E-02   3.230355       3.231266    
  1.7332500E-02  1.7771300E-02   2.810146       3.265010    
  1.7771300E-02  1.8221200E-02   2.777036       3.570227    
  1.8221200E-02  1.8682500E-02   2.678628       3.538757    
  1.8682500E-02  1.9155400E-02   2.515412       3.298140    
  1.9155400E-02  1.9640300E-02   2.420009       3.557606    
  1.9640300E-02  2.0000000E-02   2.627462       3.882023    
