 # Detector n:  1  HeIInflux 
 # N. of energy intervals 260
  1.0000100E-14  2.0000000E-13  3.0655062E+10   15.25128    
  2.0000000E-13  2.9297300E-13  6.3401333E+10   17.69073    
  2.9297300E-13  4.2916701E-13  9.5698797E+10   11.15335    
  4.2916701E-13  6.2867300E-13  1.5811448E+11   7.614378    
  6.2867300E-13  9.2092198E-13  2.0489875E+11   5.495001    
  9.2092198E-13  1.3490300E-12  3.0026318E+11   2.999573    
  1.3490300E-12  1.9761499E-12  3.8042891E+11   3.028565    
  1.9761499E-12  2.8947901E-12  4.9084239E+11   2.085865    
  2.8947901E-12  4.2404799E-12  6.0850543E+11   2.048031    
  4.2404799E-12  6.2117499E-12  6.8538080E+11   1.242480    
  6.2117499E-12  9.0993801E-12  7.0274843E+11   1.016923    
  9.0993801E-12  1.3329400E-11  6.2501487E+11  0.9086134    
  1.3329400E-11  1.9525799E-11  4.6853898E+11  0.9562467    
  1.9525799E-11  2.8602700E-11  2.7044702E+11  0.7238842    
  2.8602700E-11  4.1899099E-11  1.1598035E+11   1.191170    
  4.1899099E-11  6.1376598E-11  4.1161957E+10   1.226135    
  6.1376598E-11  8.9908601E-11  1.6705005E+10   1.387491    
  8.9908601E-11  1.3170399E-10  8.8701389E+09   1.352865    
  1.3170399E-10  1.9292901E-10  5.5918433E+09   1.207575    
  1.9292901E-10  2.8261499E-10  3.7077960E+09  0.7519979    
  2.8261499E-10  4.1399401E-10  2.5373847E+09  0.8188220    
  4.1399401E-10  5.3157900E-10  1.8474456E+09  0.7351763    
  5.3157900E-10  6.2506200E-10  1.5232649E+09   1.108550    
  6.2506200E-10  6.8256001E-10  1.2983976E+09   1.480380    
  6.8256001E-10  8.3368101E-10  1.1347707E+09   1.236232    
  8.3368101E-10  8.7642499E-10  1.0459331E+09   1.852415    
  8.7642499E-10  1.1253500E-09  8.6397050E+08  0.8878682    
  1.1253500E-09  1.4449800E-09  6.7232064E+08  0.9092553    
  1.4449800E-09  1.8553900E-09  5.2595514E+08   1.158808    
  1.8553900E-09  2.3823701E-09  4.1394698E+08  0.6776049    
  2.3823701E-09  3.0590199E-09  3.1951181E+08   1.005920    
  3.0590199E-09  3.9278598E-09  2.5192941E+08  0.8638887    
  3.9278598E-09  5.0434799E-09  1.9543206E+08  0.9243556    
  5.0434799E-09  6.4759500E-09  1.5332019E+08  0.6824331    
  6.4759500E-09  8.3152898E-09  1.2056994E+08  0.7616295    
  8.3152898E-09  1.0677000E-08  9.4121144E+07  0.7664093    
  1.0677000E-08  1.3709600E-08  7.3781064E+07  0.9239774    
  1.3709600E-08  1.7603501E-08  5.8193260E+07  0.9368992    
  1.7603501E-08  2.2603301E-08  4.4962188E+07  0.8814577    
  2.2603301E-08  2.9023200E-08  3.4862120E+07  0.9533704    
  2.9023200E-08  3.7266499E-08  2.7774484E+07  0.7592992    
  3.7266499E-08  4.7851199E-08  2.1581790E+07  0.9894714    
  4.7851199E-08  6.1442101E-08  1.6899744E+07  0.9447104    
  6.1442101E-08  7.8893301E-08  1.3175191E+07   1.039669    
  7.8893301E-08  1.0130100E-07  1.0135758E+07  0.8727190    
  1.0130100E-07  1.3007300E-07   7810814.      0.8269183    
  1.3007300E-07  1.6701701E-07   6182192.      0.7994901    
  1.6701701E-07  2.1445400E-07   4852463.      0.8848387    
  2.1445400E-07  2.7536399E-07   3731392.       1.076792    
  2.7536399E-07  3.5357499E-07   2876377.      0.9692402    
  3.5357499E-07  4.5399901E-07   2263406.      0.6708744    
  4.5399901E-07  5.8294700E-07   1744611.       1.076595    
  5.8294700E-07  7.4851800E-07   1367812.      0.8630404    
  7.4851800E-07  9.6111603E-07   1053308.      0.6810181    
  9.6111603E-07  1.2341000E-06   813626.6       1.003935    
  1.2341000E-06  1.3638900E-06   688922.7      0.9316545    
  1.3638900E-06  1.5073300E-06   595020.2       1.345036    
  1.5073300E-06  1.5846100E-06   566429.6       1.855703    
  1.5846100E-06  1.6658601E-06   526968.2       1.950830    
  1.6658601E-06  1.8410600E-06   501413.4       1.713027    
  1.8410600E-06  2.0346799E-06   443633.7       1.375368    
  2.0346799E-06  2.2486699E-06   395181.6       1.376976    
  2.2486699E-06  2.4851699E-06   353156.7       1.646809    
  2.4851699E-06  2.6125899E-06   328776.9       2.311594    
  2.6125899E-06  2.7465401E-06   312986.0       2.142463    
  2.7465401E-06  2.8634900E-06   294926.0       2.451967    
  2.8634900E-06  3.0353899E-06   282001.0       2.171789    
  3.0353899E-06  3.3546301E-06   257759.8       1.406767    
  3.3546301E-06  3.7074401E-06   227072.4       1.656922    
  3.7074401E-06  4.0973500E-06   207088.4      0.8583524    
  4.0973500E-06  4.3074201E-06   188246.3       1.736582    
  4.3074201E-06  4.5282700E-06   186340.6       1.923799    
  4.5282700E-06  5.0045101E-06   167608.7       1.271198    
  5.0045101E-06  5.5308401E-06   161146.7       1.527997    
  5.5308401E-06  6.2672698E-06   120738.7      0.9167019    
  6.2672698E-06  7.1017398E-06   118000.5       1.323892    
  7.1017398E-06  8.0473301E-06   102674.6      0.7988855    
  8.0473301E-06  9.1188203E-06   89065.27      0.6777613    
  9.1188203E-06  1.0333000E-05   78284.75       1.530589    
  1.0333000E-05  1.1708800E-05   66864.56       1.446805    
  1.1708800E-05  1.3267800E-05   58885.92      0.9046896    
  1.3267800E-05  1.5034400E-05   50650.82       1.808078    
  1.5034400E-05  1.7036200E-05   43822.50       1.283085    
  1.7036200E-05  1.9304500E-05   39733.38       1.523675    
  1.9304500E-05  2.1334799E-05   33974.93       1.110668    
  2.1334799E-05  2.1874899E-05   29918.61       2.751464    
  2.1874899E-05  2.3578599E-05   30514.33       1.608093    
  2.3578599E-05  2.4175501E-05   28427.86       2.081877    
  2.4175501E-05  2.4787500E-05   28838.33       2.673888    
  2.4787500E-05  2.6058400E-05   26902.10       1.722332    
  2.6058400E-05  2.8087899E-05   25742.30       1.527136    
  2.8087899E-05  3.1827800E-05   28132.75       1.418206    
  3.1827800E-05  3.4306700E-05   18693.04       1.651639    
  3.4306700E-05  3.5175199E-05   9174.200       4.218565    
  3.5175199E-05  3.6065601E-05   8675.117       5.790718    
  3.6065601E-05  4.0867701E-05   11634.08       1.960009    
  4.0867701E-05  4.6309200E-05   12607.13       1.463636    
  4.6309200E-05  5.2475199E-05   11162.87       1.938930    
  5.2475199E-05  5.6562199E-05   10381.02       2.265356    
  5.6562199E-05  5.9462200E-05   9682.379       3.408101    
  5.9462200E-05  6.2510902E-05   8556.264       1.774918    
  6.2510902E-05  6.7379500E-05   8520.228       2.022037    
  6.7379500E-05  7.6350902E-05   8696.862       1.920264    
  7.6350902E-05  8.6516899E-05   6205.568       1.033197    
  8.6516899E-05  9.8036500E-05   3543.796       1.662234    
  9.8036500E-05  1.1109000E-04   4287.602       1.710261    
  1.1109000E-04  1.1678600E-04   4258.630       3.554621    
  1.1678600E-04  1.2277300E-04   2901.586       3.016240    
  1.2277300E-04  1.2906799E-04   4245.611       2.573786    
  1.2906799E-04  1.3568600E-04   4120.749       2.781819    
  1.3568600E-04  1.4264201E-04   3062.289       3.111569    
  1.4264201E-04  1.4995600E-04   2516.812       3.415561    
  1.4995600E-04  1.5764400E-04   2134.972       3.689573    
  1.5764400E-04  1.6163501E-04   1681.598       5.612035    
  1.6163501E-04  1.6572700E-04   2188.572       5.212361    
  1.6572700E-04  1.6992200E-04   2229.012       4.793304    
  1.6992200E-04  1.7422400E-04   2351.557       3.880005    
  1.7422400E-04  1.8315599E-04   2118.022       2.223658    
  1.8315599E-04  1.9254700E-04   2357.928       2.382113    
  1.9254700E-04  2.0241900E-04   2016.187       2.878268    
  2.0241900E-04  2.1279699E-04   1606.746       3.697878    
  2.1279699E-04  2.2370800E-04   1684.264       2.726672    
  2.2370800E-04  2.3517800E-04   1489.209       2.985924    
  2.3517800E-04  2.4723500E-04   1545.004       2.477629    
  2.4723500E-04  2.5991100E-04   1507.128       2.342399    
  2.5991100E-04  2.7323700E-04   1639.081       2.572570    
  2.7323700E-04  2.8015400E-04   1317.463       4.046354    
  2.8015400E-04  2.8724599E-04   1149.808       4.544619    
  2.8724599E-04  2.9451799E-04   1105.855       3.995465    
  2.9451799E-04  3.0197401E-04   1133.255       5.506552    
  3.0197401E-04  3.0961799E-04   1089.731       3.862255    
  3.0961799E-04  3.1745600E-04   942.9897       4.390555    
  3.1745600E-04  3.3373301E-04   995.1183       3.113108    
  3.3373301E-04  3.5084400E-04   1054.694       2.034707    
  3.5084400E-04  3.6883200E-04   897.8630       3.145544    
  3.6883200E-04  3.8774201E-04   837.1900       3.107069    
  3.8774201E-04  4.0762199E-04   816.5106       3.853895    
  4.0762199E-04  4.2852099E-04   662.9290       2.490421    
  4.2852099E-04  4.5049199E-04   575.5155       2.719912    
  4.5049199E-04  4.7358900E-04   593.3708       3.310927    
  4.7358900E-04  4.9787102E-04   584.0073       2.704984    
  4.9787102E-04  5.1047403E-04   580.7469       3.297796    
  5.1047403E-04  5.2339700E-04   576.0639       4.627608    
  5.2339700E-04  5.3664698E-04   435.1035       5.351913    
  5.3664698E-04  5.5023201E-04   467.7198       4.859386    
  5.5023201E-04  5.7844300E-04   449.6511       2.393250    
  5.7844300E-04  6.0810102E-04   426.3195       3.176628    
  6.0810102E-04  6.3927902E-04   343.0745       2.853034    
  6.3927902E-04  6.7205500E-04   313.6676       3.908753    
  6.7205500E-04  7.0651202E-04   331.2469       3.124306    
  7.0651202E-04  7.4273598E-04   272.2356       4.344569    
  7.4273598E-04  7.8081700E-04   254.3091       2.297181    
  7.8081700E-04  8.2085002E-04   179.4056       2.806963    
  8.2085002E-04  8.6293602E-04   184.0501       4.673412    
  8.6293602E-04  9.0717903E-04   176.4989       2.797522    
  9.0717903E-04  9.5369201E-04   161.4482       3.256554    
  9.5369201E-04  9.6163998E-04   134.7596       8.391306    
  9.6163998E-04  9.7783399E-04   137.9149       6.160730    
  9.7783399E-04  1.0025901E-03   130.9501       4.472027    
  1.0025901E-03  1.0539900E-03   125.3317       3.556792    
  1.0539900E-03  1.1080300E-03   113.1699       3.943221    
  1.1080300E-03  1.1648400E-03   95.81485       4.350250    
  1.1648400E-03  1.1943300E-03   98.31833       6.976654    
  1.1943300E-03  1.2245600E-03   99.22660       3.721516    
  1.2245600E-03  1.2873500E-03   91.51463       2.777395    
  1.2873500E-03  1.3533500E-03   94.82236       4.458846    
  1.3533500E-03  1.4227401E-03   79.19209       4.197262    
  1.4227401E-03  1.4956900E-03   80.25346       3.146809    
  1.4956900E-03  1.5335500E-03   83.05195       6.358939    
  1.5335500E-03  1.5723699E-03   77.52378       5.733424    
  1.5723699E-03  1.6121800E-03   76.77635       5.749429    
  1.6121800E-03  1.6529900E-03   74.13302       6.288527    
  1.6529900E-03  1.7377400E-03   67.24918       3.283153    
  1.7377400E-03  1.8268300E-03   64.33726       3.127152    
  1.8268300E-03  1.8730800E-03   63.56818       5.937588    
  1.8730800E-03  1.9205000E-03   59.14046       8.153140    
  1.9205000E-03  1.9691200E-03   59.01241       7.937791    
  1.9691200E-03  2.0189700E-03   52.07216       6.683719    
  2.0189700E-03  2.1224800E-03   51.08353       6.039485    
  2.1224800E-03  2.2313001E-03   49.34123       4.002224    
  2.2313001E-03  2.2688799E-03   47.34266       9.118602    
  2.2688799E-03  2.3068599E-03   45.90637       8.598131    
  2.3068599E-03  2.3457000E-03   47.40774       7.878633    
  2.3457000E-03  2.3652499E-03   42.70264       9.082634    
  2.3652499E-03  2.3852000E-03   48.46504       12.22273    
  2.3852000E-03  2.4251300E-03   40.52960       9.233517    
  2.4251300E-03  2.4659701E-03   46.33911       7.502262    
  2.4659701E-03  2.5923999E-03   34.34433       4.343979    
  2.5923999E-03  2.7253199E-03   32.44645       4.968173    
  2.7253199E-03  2.8650500E-03   28.78935       4.698401    
  2.8650500E-03  3.0119400E-03   25.85052       6.919850    
  3.0119400E-03  3.0881900E-03   22.39808       7.958359    
  3.0881900E-03  3.1663701E-03   21.14331       7.780698    
  3.1663701E-03  3.2465300E-03   21.74087       9.270003    
  3.2465300E-03  3.3287101E-03   24.11254       7.643063    
  3.3287101E-03  3.4993801E-03   19.84332       5.354434    
  3.4993801E-03  3.6787901E-03   19.26704       4.997545    
  3.6787901E-03  3.8674099E-03   16.63222       7.184871    
  3.8674099E-03  4.0656999E-03   15.86005       6.969331    
  4.0656999E-03  4.2741499E-03   17.06750       6.322672    
  4.2741499E-03  4.4932901E-03   12.63742       6.543348    
  4.4932901E-03  4.6070400E-03   11.23077       9.995683    
  4.6070400E-03  4.7236700E-03   11.62783       8.988673    
  4.7236700E-03  4.8432499E-03   11.11884       13.30894    
  4.8432499E-03  4.9658502E-03   11.57357       6.736279    
  4.9658502E-03  5.2204598E-03   10.46209       6.351985    
  5.2204598E-03  5.4881200E-03   9.351763       7.115727    
  5.4881200E-03  5.7695000E-03   10.29312       7.464931    
  5.7695000E-03  5.9155500E-03   9.335323       10.83315    
  5.9155500E-03  6.0653100E-03   8.801563       13.34485    
  6.0653100E-03  6.2188501E-03   7.544986       12.67452    
  6.2188501E-03  6.3762800E-03   7.631315       10.54591    
  6.3762800E-03  6.5377001E-03   7.298603       11.89262    
  6.5377001E-03  6.5923799E-03   8.418697       13.58059    
  6.5923799E-03  6.6475999E-03   8.622165       14.60306    
  6.6475999E-03  6.7031998E-03   9.266850       18.84427    
  6.7031998E-03  6.8728901E-03   7.098574       13.38834    
  6.8728901E-03  7.0468802E-03   7.448141       11.09207    
  7.0468802E-03  7.2252699E-03   7.279948       8.847433    
  7.2252699E-03  7.4081798E-03   5.862374       8.850640    
  7.4081798E-03  7.5957198E-03   6.748354       12.38217    
  7.5957198E-03  7.7880099E-03   5.395947       11.87299    
  7.7880099E-03  7.9851598E-03   6.073540       14.50798    
  7.9851598E-03  8.1873098E-03   4.942115       13.34736    
  8.1873098E-03  8.3945701E-03   5.926570       10.55112    
  8.3945701E-03  8.6070802E-03   4.499118       12.40732    
  8.6070802E-03  8.8249696E-03   5.220497       8.552262    
  8.8249696E-03  9.0483697E-03   5.312480       13.32075    
  9.0483697E-03  9.2774397E-03   4.870087       9.762098    
  9.2774397E-03  9.5122904E-03   4.080150       16.55260    
  9.5122904E-03  9.7530996E-03   3.422831       12.41003    
  9.7530996E-03  9.9999998E-03   3.657498       15.14812    
  9.9999998E-03  1.0253200E-02   4.233269       8.166598    
  1.0253200E-02  1.0512700E-02   4.183251       11.27398    
  1.0512700E-02  1.0778800E-02   3.975668       11.62358    
  1.0778800E-02  1.1051700E-02   3.606480       11.95971    
  1.1051700E-02  1.1331500E-02   3.717831       11.74522    
  1.1331500E-02  1.1618300E-02   4.539276       12.47319    
  1.1618300E-02  1.1912500E-02   3.888094       10.87081    
  1.1912500E-02  1.2214000E-02   3.153008       9.865857    
  1.2214000E-02  1.2523200E-02   3.427968       9.818162    
  1.2523200E-02  1.2840200E-02   3.250702       13.42970    
  1.2840200E-02  1.3165300E-02   2.613300       14.34598    
  1.3165300E-02  1.3498600E-02   2.955389       10.90368    
  1.3498600E-02  1.3840300E-02   2.934873       11.90105    
  1.3840300E-02  1.4190700E-02   2.604067       12.97616    
  1.4190700E-02  1.4549900E-02   2.538215       9.838835    
  1.4549900E-02  1.4918300E-02   2.568531       10.21662    
  1.4918300E-02  1.5295900E-02   2.434182       11.21126    
  1.5295900E-02  1.5683100E-02   2.365360       16.50865    
  1.5683100E-02  1.6080100E-02   2.776811       9.714906    
  1.6080100E-02  1.6487200E-02   1.884533       15.06642    
  1.6487200E-02  1.6904600E-02   2.093126       11.42407    
  1.6904600E-02  1.7332500E-02   2.160861       10.57617    
  1.7332500E-02  1.7771300E-02   1.838922       12.07306    
  1.7771300E-02  1.8221200E-02   2.456064       7.506359    
  1.8221200E-02  1.8682500E-02   1.896371       10.50809    
  1.8682500E-02  1.9155400E-02   1.266525       16.63275    
  1.9155400E-02  1.9640300E-02   1.688794       18.79469    
  1.9640300E-02  2.0000000E-02   2.080195       12.71352    
