 # Detector n:  1  HeIInflux 
 # N. of energy intervals 260
  1.0000100E-14  2.0000000E-13  8.4184244E+10   16.37430    
  2.0000000E-13  2.9297300E-13  1.7331416E+11   14.71828    
  2.9297300E-13  4.2916701E-13  2.1675845E+11   10.25766    
  4.2916701E-13  6.2867300E-13  3.6611067E+11   6.027565    
  6.2867300E-13  9.2092198E-13  5.1821376E+11   4.909488    
  9.2092198E-13  1.3490300E-12  6.6425297E+11   4.365190    
  1.3490300E-12  1.9761499E-12  8.9128986E+11   2.543803    
  1.9761499E-12  2.8947901E-12  1.1197349E+12   1.884799    
  2.8947901E-12  4.2404799E-12  1.3244978E+12   1.358039    
  4.2404799E-12  6.2117499E-12  1.5465133E+12   1.228321    
  6.2117499E-12  9.0993801E-12  1.5339055E+12  0.8299685    
  9.0993801E-12  1.3329400E-11  1.3692127E+12  0.9801725    
  1.3329400E-11  1.9525799E-11  1.0363980E+12  0.9566406    
  1.9525799E-11  2.8602700E-11  6.1870231E+11  0.8965873    
  2.8602700E-11  4.1899099E-11  2.8664784E+11  0.9393172    
  4.1899099E-11  6.1376598E-11  1.1180805E+11  0.9432266    
  6.1376598E-11  8.9908601E-11  4.9520071E+10   1.437942    
  8.9908601E-11  1.3170399E-10  2.3626158E+10   1.243208    
  1.3170399E-10  1.9292901E-10  1.3142347E+10   1.191803    
  1.9292901E-10  2.8261499E-10  8.1589217E+09  0.8416100    
  2.8261499E-10  4.1399401E-10  5.1900396E+09  0.5406610    
  4.1399401E-10  5.3157900E-10  3.8213852E+09  0.8336096    
  5.3157900E-10  6.2506200E-10  3.1033165E+09  0.9511583    
  6.2506200E-10  6.8256001E-10  2.7134991E+09   1.352696    
  6.8256001E-10  8.3368101E-10  2.3348506E+09   1.074395    
  8.3368101E-10  8.7642499E-10  2.0600170E+09   2.196519    
  8.7642499E-10  1.1253500E-09  1.7533875E+09  0.7596970    
  1.1253500E-09  1.4449800E-09  1.3362673E+09  0.6916968    
  1.4449800E-09  1.8553900E-09  1.0472634E+09  0.7557588    
  1.8553900E-09  2.3823701E-09  8.1600717E+08  0.8627012    
  2.3823701E-09  3.0590199E-09  6.3647616E+08  0.5916077    
  3.0590199E-09  3.9278598E-09  4.9389110E+08  0.6784883    
  3.9278598E-09  5.0434799E-09  3.8555859E+08  0.8711217    
  5.0434799E-09  6.4759500E-09  2.9753066E+08  0.6678951    
  6.4759500E-09  8.3152898E-09  2.3464541E+08  0.7662777    
  8.3152898E-09  1.0677000E-08  1.8138006E+08  0.9385956    
  1.0677000E-08  1.3709600E-08  1.4202870E+08  0.7851120    
  1.3709600E-08  1.7603501E-08  1.1048745E+08  0.7539219    
  1.7603501E-08  2.2603301E-08  8.5391584E+07  0.8902962    
  2.2603301E-08  2.9023200E-08  6.6152360E+07   1.044046    
  2.9023200E-08  3.7266499E-08  5.1904424E+07  0.6922233    
  3.7266499E-08  4.7851199E-08  4.0314520E+07  0.7152533    
  4.7851199E-08  6.1442101E-08  3.1098032E+07  0.9575354    
  6.1442101E-08  7.8893301E-08  2.4113592E+07  0.6941984    
  7.8893301E-08  1.0130100E-07  1.8890466E+07  0.7293185    
  1.0130100E-07  1.3007300E-07  1.4622417E+07  0.6501755    
  1.3007300E-07  1.6701701E-07  1.1293593E+07  0.6977296    
  1.6701701E-07  2.1445400E-07   8672496.      0.7963555    
  2.1445400E-07  2.7536399E-07   6863186.      0.9497741    
  2.7536399E-07  3.5357499E-07   5263118.      0.9283307    
  3.5357499E-07  4.5399901E-07   4027927.      0.7345113    
  4.5399901E-07  5.8294700E-07   3073294.      0.7026617    
  5.8294700E-07  7.4851800E-07   2383586.      0.8898016    
  7.4851800E-07  9.6111603E-07   1841066.      0.8885944    
  9.6111603E-07  1.2341000E-06   1412464.       1.003487    
  1.2341000E-06  1.3638900E-06   1173428.       1.439104    
  1.3638900E-06  1.5073300E-06   1049838.       1.224636    
  1.5073300E-06  1.5846100E-06   991051.1       2.012763    
  1.5846100E-06  1.6658601E-06   921089.6       1.563882    
  1.6658601E-06  1.8410600E-06   860917.6       1.437657    
  1.8410600E-06  2.0346799E-06   778718.8       1.249844    
  2.0346799E-06  2.2486699E-06   694097.2       1.446691    
  2.2486699E-06  2.4851699E-06   611386.9       1.274443    
  2.4851699E-06  2.6125899E-06   549270.3       1.421173    
  2.6125899E-06  2.7465401E-06   544021.7       1.736280    
  2.7465401E-06  2.8634900E-06   513790.7       2.073421    
  2.8634900E-06  3.0353899E-06   492304.9       1.637059    
  3.0353899E-06  3.3546301E-06   445029.2       1.562752    
  3.3546301E-06  3.7074401E-06   396469.2       1.276488    
  3.7074401E-06  4.0973500E-06   359347.7       1.411092    
  4.0973500E-06  4.3074201E-06   336890.5       2.475134    
  4.3074201E-06  4.5282700E-06   307315.7       1.681058    
  4.5282700E-06  5.0045101E-06   297917.2       1.138144    
  5.0045101E-06  5.5308401E-06   282082.0       1.164196    
  5.5308401E-06  6.2672698E-06   203529.8       1.095949    
  6.2672698E-06  7.1017398E-06   195738.6       1.172056    
  7.1017398E-06  8.0473301E-06   175309.0      0.9280128    
  8.0473301E-06  9.1188203E-06   150356.9      0.9622985    
  9.1188203E-06  1.0333000E-05   133567.2       1.429557    
  1.0333000E-05  1.1708800E-05   116392.6       1.591501    
  1.1708800E-05  1.3267800E-05   100289.5       1.305894    
  1.3267800E-05  1.5034400E-05   85944.27      0.8596756    
  1.5034400E-05  1.7036200E-05   74837.84       1.161476    
  1.7036200E-05  1.9304500E-05   64114.34       1.727131    
  1.9304500E-05  2.1334799E-05   55076.81       1.502534    
  2.1334799E-05  2.1874899E-05   51813.62       2.404479    
  2.1874899E-05  2.3578599E-05   49036.88       1.486617    
  2.3578599E-05  2.4175501E-05   47082.98       3.526380    
  2.4175501E-05  2.4787500E-05   44620.21       3.492190    
  2.4787500E-05  2.6058400E-05   45056.40       2.046413    
  2.6058400E-05  2.8087899E-05   40996.66       1.756523    
  2.8087899E-05  3.1827800E-05   44348.77       1.449967    
  3.1827800E-05  3.4306700E-05   31233.81       2.041204    
  3.4306700E-05  3.5175199E-05   15234.05       3.458475    
  3.5175199E-05  3.6065601E-05   15382.54       4.822524    
  3.6065601E-05  4.0867701E-05   19231.47       1.304659    
  4.0867701E-05  4.6309200E-05   21126.86       1.506400    
  4.6309200E-05  5.2475199E-05   18696.30       1.062457    
  5.2475199E-05  5.6562199E-05   16242.37       2.054469    
  5.6562199E-05  5.9462200E-05   15577.95       2.774150    
  5.9462200E-05  6.2510902E-05   14758.85       2.471724    
  6.2510902E-05  6.7379500E-05   14229.23       1.137312    
  6.7379500E-05  7.6350902E-05   13822.56       1.083148    
  7.6350902E-05  8.6516899E-05   10332.23       1.495798    
  8.6516899E-05  9.8036500E-05   6285.436       1.483944    
  9.8036500E-05  1.1109000E-04   7264.172       1.835207    
  1.1109000E-04  1.1678600E-04   6971.183       2.867098    
  1.1678600E-04  1.2277300E-04   4909.638       2.880017    
  1.2277300E-04  1.2906799E-04   6776.064       2.279113    
  1.2906799E-04  1.3568600E-04   6461.063       3.135332    
  1.3568600E-04  1.4264201E-04   5174.942       2.705228    
  1.4264201E-04  1.4995600E-04   4017.535       3.065235    
  1.4995600E-04  1.5764400E-04   3801.493       2.528174    
  1.5764400E-04  1.6163501E-04   3016.088       4.721265    
  1.6163501E-04  1.6572700E-04   3337.063       2.774078    
  1.6572700E-04  1.6992200E-04   3442.541       3.511899    
  1.6992200E-04  1.7422400E-04   3785.791       3.491560    
  1.7422400E-04  1.8315599E-04   3678.867       2.703133    
  1.8315599E-04  1.9254700E-04   3720.337       2.497487    
  1.9254700E-04  2.0241900E-04   3394.186       2.847721    
  2.0241900E-04  2.1279699E-04   2663.649       3.717440    
  2.1279699E-04  2.2370800E-04   2780.615       2.139520    
  2.2370800E-04  2.3517800E-04   2564.877       2.450305    
  2.3517800E-04  2.4723500E-04   2708.777       2.827771    
  2.4723500E-04  2.5991100E-04   2619.474       2.715750    
  2.5991100E-04  2.7323700E-04   2668.419       2.540432    
  2.7323700E-04  2.8015400E-04   2213.089       4.767700    
  2.8015400E-04  2.8724599E-04   1895.708       4.233211    
  2.8724599E-04  2.9451799E-04   1802.823       3.989005    
  2.9451799E-04  3.0197401E-04   1842.084       3.205788    
  3.0197401E-04  3.0961799E-04   1766.234       3.540337    
  3.0961799E-04  3.1745600E-04   1710.763       5.197991    
  3.1745600E-04  3.3373301E-04   1665.492       3.189237    
  3.3373301E-04  3.5084400E-04   1674.010       2.041692    
  3.5084400E-04  3.6883200E-04   1375.300       2.969993    
  3.6883200E-04  3.8774201E-04   1403.067       3.525694    
  3.8774201E-04  4.0762199E-04   1256.350       2.445364    
  4.0762199E-04  4.2852099E-04   1086.385       2.800259    
  4.2852099E-04  4.5049199E-04   1005.828       3.250669    
  4.5049199E-04  4.7358900E-04   1001.534       4.163226    
  4.7358900E-04  4.9787102E-04   954.7427       2.533212    
  4.9787102E-04  5.1047403E-04   943.6829       4.168731    
  5.1047403E-04  5.2339700E-04   907.3329       5.100478    
  5.2339700E-04  5.3664698E-04   645.3557       4.919120    
  5.3664698E-04  5.5023201E-04   830.5386       5.367901    
  5.5023201E-04  5.7844300E-04   679.3510       2.518095    
  5.7844300E-04  6.0810102E-04   620.6915       3.174500    
  6.0810102E-04  6.3927902E-04   565.8149       2.798748    
  6.3927902E-04  6.7205500E-04   509.2986       3.565113    
  6.7205500E-04  7.0651202E-04   487.6670       4.057537    
  7.0651202E-04  7.4273598E-04   402.6330       2.711198    
  7.4273598E-04  7.8081700E-04   344.0888       4.274513    
  7.8081700E-04  8.2085002E-04   283.0870       3.461645    
  8.2085002E-04  8.6293602E-04   261.7286       3.753344    
  8.6293602E-04  9.0717903E-04   238.9284       3.428567    
  9.0717903E-04  9.5369201E-04   217.9213       3.316974    
  9.5369201E-04  9.6163998E-04   211.7837       6.403521    
  9.6163998E-04  9.7783399E-04   207.8719       4.307939    
  9.7783399E-04  1.0025901E-03   182.9573       6.096183    
  1.0025901E-03  1.0539900E-03   168.4010       4.424224    
  1.0539900E-03  1.1080300E-03   151.1469       3.533667    
  1.1080300E-03  1.1648400E-03   142.5728       4.006852    
  1.1648400E-03  1.1943300E-03   133.0359       6.334743    
  1.1943300E-03  1.2245600E-03   133.3970       5.391348    
  1.2245600E-03  1.2873500E-03   125.8765       4.096976    
  1.2873500E-03  1.3533500E-03   126.6576       3.254587    
  1.3533500E-03  1.4227401E-03   139.2075       4.007198    
  1.4227401E-03  1.4956900E-03   110.8418       4.702237    
  1.4956900E-03  1.5335500E-03   123.2510       4.876042    
  1.5335500E-03  1.5723699E-03   122.3434       4.140523    
  1.5723699E-03  1.6121800E-03   125.1682       5.070877    
  1.6121800E-03  1.6529900E-03   97.54179       5.208297    
  1.6529900E-03  1.7377400E-03   96.22034       4.279036    
  1.7377400E-03  1.8268300E-03   100.7575       4.017112    
  1.8268300E-03  1.8730800E-03   100.2745       5.296742    
  1.8730800E-03  1.9205000E-03   92.37211       5.599939    
  1.9205000E-03  1.9691200E-03   85.43477       6.805457    
  1.9691200E-03  2.0189700E-03   88.36138       5.652987    
  2.0189700E-03  2.1224800E-03   74.99376       5.470251    
  2.1224800E-03  2.2313001E-03   70.37025       4.301260    
  2.2313001E-03  2.2688799E-03   62.60780       9.490443    
  2.2688799E-03  2.3068599E-03   69.31685       6.234409    
  2.3068599E-03  2.3457000E-03   63.80637       9.685084    
  2.3457000E-03  2.3652499E-03   63.50011       13.81610    
  2.3652499E-03  2.3852000E-03   81.32091       9.432224    
  2.3852000E-03  2.4251300E-03   68.36070       6.854030    
  2.4251300E-03  2.4659701E-03   73.12933       7.831737    
  2.4659701E-03  2.5923999E-03   55.39709       6.778979    
  2.5923999E-03  2.7253199E-03   53.76949       3.771390    
  2.7253199E-03  2.8650500E-03   41.45988       6.789682    
  2.8650500E-03  3.0119400E-03   40.84312       5.427449    
  3.0119400E-03  3.0881900E-03   37.56870       6.451081    
  3.0881900E-03  3.1663701E-03   38.26933       6.800291    
  3.1663701E-03  3.2465300E-03   34.63680       8.119952    
  3.2465300E-03  3.3287101E-03   33.30011       9.277926    
  3.3287101E-03  3.4993801E-03   33.55439       6.625424    
  3.4993801E-03  3.6787901E-03   32.65702       5.820089    
  3.6787901E-03  3.8674099E-03   24.61780       6.061328    
  3.8674099E-03  4.0656999E-03   23.80045       7.031588    
  4.0656999E-03  4.2741499E-03   23.90613       6.731016    
  4.2741499E-03  4.4932901E-03   23.49899       7.059340    
  4.4932901E-03  4.6070400E-03   22.09365       10.20694    
  4.6070400E-03  4.7236700E-03   22.81667       11.83792    
  4.7236700E-03  4.8432499E-03   17.44746       10.46245    
  4.8432499E-03  4.9658502E-03   21.52228       7.615912    
  4.9658502E-03  5.2204598E-03   18.57812       6.906289    
  5.2204598E-03  5.4881200E-03   15.69032       7.540668    
  5.4881200E-03  5.7695000E-03   16.85455       5.272041    
  5.7695000E-03  5.9155500E-03   14.54661       8.672142    
  5.9155500E-03  6.0653100E-03   13.93651       10.56198    
  6.0653100E-03  6.2188501E-03   15.08901       13.26600    
  6.2188501E-03  6.3762800E-03   14.06731       10.58266    
  6.3762800E-03  6.5377001E-03   15.64198       8.186890    
  6.5377001E-03  6.5923799E-03   14.25582       19.58018    
  6.5923799E-03  6.6475999E-03   10.10415       22.80235    
  6.6475999E-03  6.7031998E-03   11.45574       13.66143    
  6.7031998E-03  6.8728901E-03   12.32575       9.094068    
  6.8728901E-03  7.0468802E-03   11.14041       9.722913    
  7.0468802E-03  7.2252699E-03   12.43628       9.728551    
  7.2252699E-03  7.4081798E-03   9.790276       6.794764    
  7.4081798E-03  7.5957198E-03   11.14350       8.380659    
  7.5957198E-03  7.7880099E-03   10.24064       9.501839    
  7.7880099E-03  7.9851598E-03   9.912047       9.841681    
  7.9851598E-03  8.1873098E-03   11.37104       7.441575    
  8.1873098E-03  8.3945701E-03   7.936141       8.573585    
  8.3945701E-03  8.6070802E-03   9.892878       8.137937    
  8.6070802E-03  8.8249696E-03   9.472854       10.30623    
  8.8249696E-03  9.0483697E-03   8.641395       8.194361    
  9.0483697E-03  9.2774397E-03   8.734988       8.969027    
  9.2774397E-03  9.5122904E-03   6.922016       12.92816    
  9.5122904E-03  9.7530996E-03   8.439530       10.23750    
  9.7530996E-03  9.9999998E-03   7.375333       11.87356    
  9.9999998E-03  1.0253200E-02   8.195982       8.257850    
  1.0253200E-02  1.0512700E-02   6.864250       9.634873    
  1.0512700E-02  1.0778800E-02   5.935582       12.93442    
  1.0778800E-02  1.1051700E-02   7.188308       10.31170    
  1.1051700E-02  1.1331500E-02   7.580419       9.197298    
  1.1331500E-02  1.1618300E-02   7.372879       12.22868    
  1.1618300E-02  1.1912500E-02   6.362534       9.662989    
  1.1912500E-02  1.2214000E-02   7.281768       11.14677    
  1.2214000E-02  1.2523200E-02   6.714432       12.19249    
  1.2523200E-02  1.2840200E-02   6.910764       13.72652    
  1.2840200E-02  1.3165300E-02   5.019238       12.01479    
  1.3165300E-02  1.3498600E-02   5.609692       9.889893    
  1.3498600E-02  1.3840300E-02   6.656670       11.83204    
  1.3840300E-02  1.4190700E-02   5.847191       10.01674    
  1.4190700E-02  1.4549900E-02   4.501788       10.93614    
  1.4549900E-02  1.4918300E-02   5.234478       11.67657    
  1.4918300E-02  1.5295900E-02   4.319528       13.38634    
  1.5295900E-02  1.5683100E-02   4.532055       12.06097    
  1.5683100E-02  1.6080100E-02   4.113516       9.959101    
  1.6080100E-02  1.6487200E-02   5.387486       8.423578    
  1.6487200E-02  1.6904600E-02   3.944471       13.03522    
  1.6904600E-02  1.7332500E-02   3.547953       13.14100    
  1.7332500E-02  1.7771300E-02   3.525288       11.82244    
  1.7771300E-02  1.8221200E-02   3.775473       9.497267    
  1.8221200E-02  1.8682500E-02   3.922098       8.632608    
  1.8682500E-02  1.9155400E-02   3.868564       13.15473    
  1.9155400E-02  1.9640300E-02   3.399122       14.81107    
  1.9640300E-02  2.0000000E-02   2.322851       17.77920    
