 # Detector n:  1  HeIInflux 
 # N. of energy intervals 260
  1.0000100E-14  2.0000000E-13  2.9451360E+10   25.70120    
  2.0000000E-13  2.9297300E-13  6.4374841E+10   16.92497    
  2.9297300E-13  4.2916701E-13  1.2119828E+11   9.881334    
  4.2916701E-13  6.2867300E-13  1.8567669E+11   10.14629    
  6.2867300E-13  9.2092198E-13  2.5135251E+11   5.698390    
  9.2092198E-13  1.3490300E-12  3.4311324E+11   5.782832    
  1.3490300E-12  1.9761499E-12  4.7548334E+11   3.377635    
  1.9761499E-12  2.8947901E-12  5.7110187E+11   2.528268    
  2.8947901E-12  4.2404799E-12  7.0990397E+11   1.435008    
  4.2404799E-12  6.2117499E-12  8.2537932E+11   1.185287    
  6.2117499E-12  9.0993801E-12  8.5952247E+11  0.9601007    
  9.0993801E-12  1.3329400E-11  7.7890434E+11  0.6928662    
  1.3329400E-11  1.9525799E-11  6.3056898E+11  0.7167675    
  1.9525799E-11  2.8602700E-11  4.0859225E+11   1.014838    
  2.8602700E-11  4.1899099E-11  2.1163932E+11   1.068661    
  4.1899099E-11  6.1376598E-11  1.0030054E+11  0.8153695    
  6.1376598E-11  8.9908601E-11  4.5305336E+10   1.218920    
  8.9908601E-11  1.3170399E-10  1.9233729E+10   1.257905    
  1.3170399E-10  1.9292901E-10  9.2071864E+09   1.419952    
  1.9292901E-10  2.8261499E-10  5.2859950E+09  0.6365584    
  2.8261499E-10  4.1399401E-10  3.3913513E+09  0.5858661    
  4.1399401E-10  5.3157900E-10  2.4939325E+09   1.189721    
  5.3157900E-10  6.2506200E-10  1.9813431E+09   1.075540    
  6.2506200E-10  6.8256001E-10  1.7190899E+09  0.9514894    
  6.8256001E-10  8.3368101E-10  1.5228544E+09  0.9241787    
  8.3368101E-10  8.7642499E-10  1.3327057E+09   2.405006    
  8.7642499E-10  1.1253500E-09  1.1556285E+09  0.8576965    
  1.1253500E-09  1.4449800E-09  8.8041421E+08  0.9747975    
  1.4449800E-09  1.8553900E-09  7.0160864E+08  0.7692651    
  1.8553900E-09  2.3823701E-09  5.5999494E+08  0.7248273    
  2.3823701E-09  3.0590199E-09  4.3810310E+08  0.7246334    
  3.0590199E-09  3.9278598E-09  3.4268051E+08  0.5258025    
  3.9278598E-09  5.0434799E-09  2.6957494E+08  0.8488557    
  5.0434799E-09  6.4759500E-09  2.1074016E+08  0.7830485    
  6.4759500E-09  8.3152898E-09  1.6825854E+08  0.8425238    
  8.3152898E-09  1.0677000E-08  1.3365106E+08  0.9887266    
  1.0677000E-08  1.3709600E-08  1.0390105E+08  0.7365113    
  1.3709600E-08  1.7603501E-08  8.3595640E+07  0.5841168    
  1.7603501E-08  2.2603301E-08  6.5582568E+07  0.7304019    
  2.2603301E-08  2.9023200E-08  5.1958460E+07  0.6471505    
  2.9023200E-08  3.7266499E-08  4.1379076E+07  0.7903479    
  3.7266499E-08  4.7851199E-08  3.2597028E+07  0.6743985    
  4.7851199E-08  6.1442101E-08  2.5467358E+07  0.6456949    
  6.1442101E-08  7.8893301E-08  2.0596088E+07  0.6392549    
  7.8893301E-08  1.0130100E-07  1.6007436E+07  0.6671045    
  1.0130100E-07  1.3007300E-07  1.2861409E+07  0.9313134    
  1.3007300E-07  1.6701701E-07  1.0021374E+07  0.8212219    
  1.6701701E-07  2.1445400E-07   7981486.      0.8565182    
  2.1445400E-07  2.7536399E-07   6322971.      0.7890456    
  2.7536399E-07  3.5357499E-07   4982972.      0.8221490    
  3.5357499E-07  4.5399901E-07   3916169.      0.5778253    
  4.5399901E-07  5.8294700E-07   3131091.      0.5736361    
  5.8294700E-07  7.4851800E-07   2450235.      0.8498451    
  7.4851800E-07  9.6111603E-07   1934824.      0.6910074    
  9.6111603E-07  1.2341000E-06   1532901.      0.9316441    
  1.2341000E-06  1.3638900E-06   1269372.       1.023314    
  1.3638900E-06  1.5073300E-06   1182462.      0.8593428    
  1.5073300E-06  1.5846100E-06   1097536.       1.425218    
  1.5846100E-06  1.6658601E-06   1047445.       1.106530    
  1.6658601E-06  1.8410600E-06   971390.2      0.6106858    
  1.8410600E-06  2.0346799E-06   871325.2      0.9730284    
  2.0346799E-06  2.2486699E-06   807130.2      0.8661877    
  2.2486699E-06  2.4851699E-06   721168.2      0.9179937    
  2.4851699E-06  2.6125899E-06   664935.7       1.310216    
  2.6125899E-06  2.7465401E-06   640422.4       1.703960    
  2.7465401E-06  2.8634900E-06   612933.0       1.526449    
  2.8634900E-06  3.0353899E-06   595099.5       1.170943    
  3.0353899E-06  3.3546301E-06   548222.1       1.015493    
  3.3546301E-06  3.7074401E-06   496358.9      0.8198670    
  3.7074401E-06  4.0973500E-06   460655.6      0.9493189    
  4.0973500E-06  4.3074201E-06   422473.8       1.168492    
  4.3074201E-06  4.5282700E-06   402337.2       1.353199    
  4.5282700E-06  5.0045101E-06   378117.8      0.8521070    
  5.0045101E-06  5.5308401E-06   375020.6      0.8099798    
  5.5308401E-06  6.2672698E-06   249477.8      0.9090109    
  6.2672698E-06  7.1017398E-06   271684.5      0.7922997    
  7.1017398E-06  8.0473301E-06   241526.4       1.186594    
  8.0473301E-06  9.1188203E-06   213188.6      0.8191117    
  9.1188203E-06  1.0333000E-05   187876.3      0.7919554    
  1.0333000E-05  1.1708800E-05   165787.4      0.7553868    
  1.1708800E-05  1.3267800E-05   148465.1      0.9214849    
  1.3267800E-05  1.5034400E-05   127201.8      0.6751013    
  1.5034400E-05  1.7036200E-05   114231.7       1.037811    
  1.7036200E-05  1.9304500E-05   100631.6      0.8980527    
  1.9304500E-05  2.1334799E-05   90198.75      0.6371679    
  2.1334799E-05  2.1874899E-05   88610.14       1.714249    
  2.1874899E-05  2.3578599E-05   81305.35      0.8433933    
  2.3578599E-05  2.4175501E-05   77417.88       2.369717    
  2.4175501E-05  2.4787500E-05   77876.89       2.442031    
  2.4787500E-05  2.6058400E-05   77597.22       1.336400    
  2.6058400E-05  2.8087899E-05   76583.09       1.192113    
  2.8087899E-05  3.1827800E-05   82168.27      0.6784949    
  3.1827800E-05  3.4306700E-05   47656.82       1.201593    
  3.4306700E-05  3.5175199E-05   24687.69       2.916159    
  3.5175199E-05  3.6065601E-05   21092.74       3.900731    
  3.6065601E-05  4.0867701E-05   29266.13       1.088486    
  4.0867701E-05  4.6309200E-05   35421.25      0.7623400    
  4.6309200E-05  5.2475199E-05   33877.14       1.041341    
  5.2475199E-05  5.6562199E-05   31573.49       1.062725    
  5.6562199E-05  5.9462200E-05   29743.39       1.807932    
  5.9462200E-05  6.2510902E-05   29683.84       1.575327    
  6.2510902E-05  6.7379500E-05   28272.12      0.9761750    
  6.7379500E-05  7.6350902E-05   29081.38      0.9562271    
  7.6350902E-05  8.6516899E-05   18938.58      0.8846368    
  8.6516899E-05  9.8036500E-05   10458.85       1.568681    
  9.8036500E-05  1.1109000E-04   13821.66      0.8961061    
  1.1109000E-04  1.1678600E-04   14259.31       1.192509    
  1.1678600E-04  1.2277300E-04   9386.104       1.413587    
  1.2277300E-04  1.2906799E-04   15526.49       1.177438    
  1.2906799E-04  1.3568600E-04   15572.77       1.214092    
  1.3568600E-04  1.4264201E-04   9949.218       1.071238    
  1.4264201E-04  1.4995600E-04   7389.317       2.396430    
  1.4995600E-04  1.5764400E-04   6823.615       1.614371    
  1.5764400E-04  1.6163501E-04   5706.734       2.886254    
  1.6163501E-04  1.6572700E-04   6730.384       2.355948    
  1.6572700E-04  1.6992200E-04   7281.331       2.246666    
  1.6992200E-04  1.7422400E-04   7337.445       1.948070    
  1.7422400E-04  1.8315599E-04   7858.888       1.871578    
  1.8315599E-04  1.9254700E-04   8341.434       1.705043    
  1.9254700E-04  2.0241900E-04   7245.609       1.275667    
  2.0241900E-04  2.1279699E-04   5319.226       1.607329    
  2.1279699E-04  2.2370800E-04   5463.041       1.942312    
  2.2370800E-04  2.3517800E-04   5701.305       1.345833    
  2.3517800E-04  2.4723500E-04   5972.863       1.943499    
  2.4723500E-04  2.5991100E-04   5954.077       1.204412    
  2.5991100E-04  2.7323700E-04   6451.279       1.401147    
  2.7323700E-04  2.8015400E-04   5192.794       1.556796    
  2.8015400E-04  2.8724599E-04   3830.549       2.703968    
  2.8724599E-04  2.9451799E-04   3878.400       2.534186    
  2.9451799E-04  3.0197401E-04   4051.865       2.051096    
  3.0197401E-04  3.0961799E-04   4126.163       2.570956    
  3.0961799E-04  3.1745600E-04   3564.085       3.898712    
  3.1745600E-04  3.3373301E-04   3924.311       1.794662    
  3.3373301E-04  3.5084400E-04   4168.713       1.285203    
  3.5084400E-04  3.6883200E-04   3303.098       1.401628    
  3.6883200E-04  3.8774201E-04   3095.679       1.527342    
  3.8774201E-04  4.0762199E-04   3104.865       1.793172    
  4.0762199E-04  4.2852099E-04   2473.144       1.454917    
  4.2852099E-04  4.5049199E-04   2213.427       2.540961    
  4.5049199E-04  4.7358900E-04   2274.386       1.178725    
  4.7358900E-04  4.9787102E-04   2273.163       1.599386    
  4.9787102E-04  5.1047403E-04   2338.298       3.017385    
  5.1047403E-04  5.2339700E-04   2314.706       1.951560    
  5.2339700E-04  5.3664698E-04   1622.045       3.406588    
  5.3664698E-04  5.5023201E-04   1941.166       1.843861    
  5.5023201E-04  5.7844300E-04   1706.481       1.741629    
  5.7844300E-04  6.0810102E-04   1671.038       1.584735    
  6.0810102E-04  6.3927902E-04   1502.353       1.666235    
  6.3927902E-04  6.7205500E-04   1203.663       1.605984    
  6.7205500E-04  7.0651202E-04   1337.977       1.682513    
  7.0651202E-04  7.4273598E-04   1192.359       2.027433    
  7.4273598E-04  7.8081700E-04   984.2633       2.516352    
  7.8081700E-04  8.2085002E-04   713.1431       1.844151    
  8.2085002E-04  8.6293602E-04   667.8182       2.318571    
  8.6293602E-04  9.0717903E-04   635.3880       2.307749    
  9.0717903E-04  9.5369201E-04   565.5717       2.397850    
  9.5369201E-04  9.6163998E-04   506.5898       4.495612    
  9.6163998E-04  9.7783399E-04   481.0779       3.630769    
  9.7783399E-04  1.0025901E-03   493.5779       2.428483    
  1.0025901E-03  1.0539900E-03   441.9837       2.539066    
  1.0539900E-03  1.1080300E-03   436.2281       2.048938    
  1.1080300E-03  1.1648400E-03   369.2656       2.677954    
  1.1648400E-03  1.1943300E-03   329.1818       3.490451    
  1.1943300E-03  1.2245600E-03   357.3904       3.039634    
  1.2245600E-03  1.2873500E-03   325.0583       2.242785    
  1.2873500E-03  1.3533500E-03   318.5058       2.003648    
  1.3533500E-03  1.4227401E-03   310.7850       3.179880    
  1.4227401E-03  1.4956900E-03   277.2280       2.878159    
  1.4956900E-03  1.5335500E-03   269.4369       2.973350    
  1.5335500E-03  1.5723699E-03   254.2914       3.258671    
  1.5723699E-03  1.6121800E-03   253.2808       3.005175    
  1.6121800E-03  1.6529900E-03   260.9936       3.688638    
  1.6529900E-03  1.7377400E-03   237.4500       2.839609    
  1.7377400E-03  1.8268300E-03   214.7179       3.158884    
  1.8268300E-03  1.8730800E-03   215.6631       3.239931    
  1.8730800E-03  1.9205000E-03   207.9195       2.484458    
  1.9205000E-03  1.9691200E-03   190.6351       3.297104    
  1.9691200E-03  2.0189700E-03   186.5667       3.906458    
  2.0189700E-03  2.1224800E-03   164.5390       2.463709    
  2.1224800E-03  2.2313001E-03   155.7123       3.435176    
  2.2313001E-03  2.2688799E-03   141.3458       5.458695    
  2.2688799E-03  2.3068599E-03   136.4802       5.023420    
  2.3068599E-03  2.3457000E-03   132.2807       6.877043    
  2.3457000E-03  2.3652499E-03   135.7358       6.927545    
  2.3652499E-03  2.3852000E-03   153.5117       5.207528    
  2.3852000E-03  2.4251300E-03   131.1368       7.031857    
  2.4251300E-03  2.4659701E-03   126.7915       3.693666    
  2.4659701E-03  2.5923999E-03   101.1236       3.252177    
  2.5923999E-03  2.7253199E-03   94.02826       1.988225    
  2.7253199E-03  2.8650500E-03   79.41312       3.275284    
  2.8650500E-03  3.0119400E-03   70.33184       3.928171    
  3.0119400E-03  3.0881900E-03   61.61225       7.298975    
  3.0881900E-03  3.1663701E-03   65.89877       5.266236    
  3.1663701E-03  3.2465300E-03   58.92708       8.319472    
  3.2465300E-03  3.3287101E-03   50.65794       6.752463    
  3.3287101E-03  3.4993801E-03   49.41263       3.437968    
  3.4993801E-03  3.6787901E-03   43.41634       4.562900    
  3.6787901E-03  3.8674099E-03   39.13438       4.753636    
  3.8674099E-03  4.0656999E-03   34.18957       3.601251    
  4.0656999E-03  4.2741499E-03   32.16150       4.179451    
  4.2741499E-03  4.4932901E-03   30.17761       3.890954    
  4.4932901E-03  4.6070400E-03   30.55225       5.522521    
  4.6070400E-03  4.7236700E-03   24.56264       7.240795    
  4.7236700E-03  4.8432499E-03   22.45852       7.916685    
  4.8432499E-03  4.9658502E-03   23.38473       5.889394    
  4.9658502E-03  5.2204598E-03   21.37448       3.965549    
  5.2204598E-03  5.4881200E-03   22.59217       3.356017    
  5.4881200E-03  5.7695000E-03   17.77619       4.597196    
  5.7695000E-03  5.9155500E-03   16.82899       6.142626    
  5.9155500E-03  6.0653100E-03   18.65435       7.016469    
  6.0653100E-03  6.2188501E-03   14.99633       8.182232    
  6.2188501E-03  6.3762800E-03   15.65748       7.580193    
  6.3762800E-03  6.5377001E-03   15.38020       7.805007    
  6.5377001E-03  6.5923799E-03   15.45353       9.791664    
  6.5923799E-03  6.6475999E-03   13.69544       14.78856    
  6.6475999E-03  6.7031998E-03   14.40718       11.12610    
  6.7031998E-03  6.8728901E-03   14.86227       7.385546    
  6.8728901E-03  7.0468802E-03   11.53199       6.671775    
  7.0468802E-03  7.2252699E-03   11.56818       7.305501    
  7.2252699E-03  7.4081798E-03   14.33589       6.624498    
  7.4081798E-03  7.5957198E-03   13.69105       10.75640    
  7.5957198E-03  7.7880099E-03   10.89788       6.648898    
  7.7880099E-03  7.9851598E-03   12.58852       4.588398    
  7.9851598E-03  8.1873098E-03   11.67614       6.251255    
  8.1873098E-03  8.3945701E-03   7.937815       9.384887    
  8.3945701E-03  8.6070802E-03   9.964289       7.142797    
  8.6070802E-03  8.8249696E-03   8.311838       10.65214    
  8.8249696E-03  9.0483697E-03   9.560278       6.965296    
  9.0483697E-03  9.2774397E-03   8.082868       8.269570    
  9.2774397E-03  9.5122904E-03   8.854204       6.144400    
  9.5122904E-03  9.7530996E-03   7.752314       7.786726    
  9.7530996E-03  9.9999998E-03   8.507949       7.311810    
  9.9999998E-03  1.0253200E-02   6.947395       11.98114    
  1.0253200E-02  1.0512700E-02   7.722078       9.409835    
  1.0512700E-02  1.0778800E-02   7.859201       7.914187    
  1.0778800E-02  1.1051700E-02   6.333139       9.234483    
  1.1051700E-02  1.1331500E-02   6.424485       8.933771    
  1.1331500E-02  1.1618300E-02   7.076070       7.698145    
  1.1618300E-02  1.1912500E-02   4.986098       10.00710    
  1.1912500E-02  1.2214000E-02   6.156269       10.02301    
  1.2214000E-02  1.2523200E-02   5.468669       7.923926    
  1.2523200E-02  1.2840200E-02   5.434543       8.168072    
  1.2840200E-02  1.3165300E-02   5.795199       9.744099    
  1.3165300E-02  1.3498600E-02   4.897007       8.821134    
  1.3498600E-02  1.3840300E-02   5.218955       8.267963    
  1.3840300E-02  1.4190700E-02   4.624207       8.652812    
  1.4190700E-02  1.4549900E-02   4.385437       9.687850    
  1.4549900E-02  1.4918300E-02   3.868798       11.70269    
  1.4918300E-02  1.5295900E-02   4.558791       9.118652    
  1.5295900E-02  1.5683100E-02   4.508922       8.499483    
  1.5683100E-02  1.6080100E-02   3.969917       10.70134    
  1.6080100E-02  1.6487200E-02   3.387211       14.07757    
  1.6487200E-02  1.6904600E-02   3.512086       8.755511    
  1.6904600E-02  1.7332500E-02   3.335963       6.815346    
  1.7332500E-02  1.7771300E-02   2.894958       12.23339    
  1.7771300E-02  1.8221200E-02   3.281320       9.227911    
  1.8221200E-02  1.8682500E-02   3.312818       14.32316    
  1.8682500E-02  1.9155400E-02   3.252299       9.600842    
  1.9155400E-02  1.9640300E-02   2.957148       7.738970    
  1.9640300E-02  2.0000000E-02   2.625735       11.27234    
