 # Detector n:            1   HeIInflux 
 # N. of energy intervals         277
  1.0000100E-14  2.0000000E-13  3.2348031E+10   2.463217    
  2.0000000E-13  2.9297300E-13  7.5492819E+10   2.218805    
  2.9297300E-13  4.2916701E-13  1.0883042E+11   1.473359    
  4.2916701E-13  6.2867300E-13  1.5063907E+11   1.218865    
  6.2867300E-13  9.2092198E-13  2.0999551E+11  0.7854197    
  9.2092198E-13  1.3490300E-12  2.8677151E+11  0.5646780    
  1.3490300E-12  1.9761499E-12  3.7877377E+11  0.4022022    
  1.9761499E-12  2.8947901E-12  4.8482458E+11  0.3055959    
  2.8947901E-12  4.2404799E-12  5.7752853E+11  0.2392248    
  4.2404799E-12  6.2117499E-12  6.4352276E+11  0.2210868    
  6.2117499E-12  9.0993801E-12  6.5656580E+11  0.1793760    
  9.0993801E-12  1.3329400E-11  5.9286055E+11  0.1521858    
  1.3329400E-11  1.9525799E-11  4.6134293E+11  0.1516607    
  1.9525799E-11  2.8602700E-11  2.9617219E+11  0.1480799    
  2.8602700E-11  4.1899099E-11  1.5648924E+11  0.1589039    
  4.1899099E-11  6.1376598E-11  7.4059538E+10  0.1978530    
  6.1376598E-11  8.9908601E-11  3.2224229E+10  0.2230761    
  8.9908601E-11  1.3170399E-10  1.1749431E+10  0.2804832    
  1.3170399E-10  1.9292901E-10  3.7746058E+09  0.4043296    
  1.9292901E-10  2.8261499E-10  1.4827040E+09  0.5188144    
  2.8261499E-10  4.1399401E-10  7.8386406E+08  0.5940074    
  4.1399401E-10  5.3157900E-10  5.2295974E+08  0.7653537    
  5.3157900E-10  6.2506200E-10  4.1425293E+08  0.9376476    
  6.2506200E-10  6.8256001E-10  3.5668611E+08   1.322489    
  6.8256001E-10  8.3368101E-10  3.0739123E+08  0.9086722    
  8.3368101E-10  8.7642499E-10  2.5707440E+08   1.694763    
  8.7642499E-10  1.1253500E-09  2.2317997E+08  0.7704501    
  1.1253500E-09  1.4449800E-09  1.6844547E+08  0.7921637    
  1.4449800E-09  1.8553900E-09  1.2876524E+08  0.8772683    
  1.8553900E-09  2.3823701E-09  9.7201000E+07  0.7911336    
  2.3823701E-09  3.0590199E-09  7.5029696E+07  0.8239734    
  3.0590199E-09  3.9278598E-09  5.5638608E+07  0.8853137    
  3.9278598E-09  5.0434799E-09  4.2689080E+07  0.8637358    
  5.0434799E-09  6.4759500E-09  3.2568508E+07  0.8472448    
  6.4759500E-09  8.3152898E-09  2.5158834E+07  0.8412690    
  8.3152898E-09  1.0677000E-08  1.9213862E+07  0.9048473    
  1.0677000E-08  1.3709600E-08  1.4782918E+07  0.9275410    
  1.3709600E-08  1.7603501E-08  1.1263675E+07  0.8888146    
  1.7603501E-08  2.2603301E-08   8580069.      0.9028404    
  2.2603301E-08  2.9023200E-08   6465627.      0.8803827    
  2.9023200E-08  3.7266499E-08   4964814.      0.8949592    
  3.7266499E-08  4.7851199E-08   3765894.      0.9049374    
  4.7851199E-08  6.1442101E-08   2902179.      0.8741843    
  6.1442101E-08  7.8893301E-08   2186861.      0.9572513    
  7.8893301E-08  1.0130100E-07   1645403.       1.043743    
  1.0130100E-07  1.3007300E-07   1266265.      0.9945797    
  1.3007300E-07  1.6701701E-07   956192.1       1.002798    
  1.6701701E-07  2.1445400E-07   724985.8      0.9781237    
  2.1445400E-07  2.7536399E-07   541053.5      0.9592799    
  2.7536399E-07  3.5357499E-07   416756.3      0.9942165    
  3.5357499E-07  4.5399901E-07   304878.6       1.000146    
  4.5399901E-07  5.8294700E-07   233181.7       1.043031    
  5.8294700E-07  7.4851800E-07   176626.0       1.092377    
  7.4851800E-07  9.6111603E-07   131764.7       1.112344    
  9.6111603E-07  1.2341000E-06   97573.46       1.123462    
  1.2341000E-06  1.3638900E-06   81513.27       1.816551    
  1.3638900E-06  1.5073300E-06   70525.85       1.812843    
  1.5073300E-06  1.5846100E-06   67761.91       2.491833    
  1.5846100E-06  1.6658601E-06   67132.66       2.575246    
  1.6658601E-06  1.8410600E-06   56184.74       1.750085    
  1.8410600E-06  2.0346799E-06   50672.93       1.699060    
  2.0346799E-06  2.2486699E-06   43118.27       1.723879    
  2.2486699E-06  2.4851699E-06   40855.57       1.930808    
  2.4851699E-06  2.6125899E-06   35655.31       2.638753    
  2.6125899E-06  2.7465401E-06   33375.50       2.725844    
  2.7465401E-06  2.8634900E-06   34056.20       2.727643    
  2.8634900E-06  3.0353899E-06   30131.25       2.357994    
  3.0353899E-06  3.3546301E-06   27277.10       1.878855    
  3.3546301E-06  3.7074401E-06   25488.58       1.921605    
  3.7074401E-06  4.0973500E-06   22599.36       1.919352    
  4.0973500E-06  4.3074201E-06   19955.33       2.658776    
  4.3074201E-06  4.5282700E-06   18709.56       2.734985    
  4.5282700E-06  5.0045101E-06   16941.68       1.867210    
  5.0045101E-06  5.5308401E-06   17691.63       1.856760    
  5.5308401E-06  6.2672698E-06   11115.24       2.045530    
  6.2672698E-06  7.1017398E-06   11902.15       1.759631    
  7.1017398E-06  8.0473301E-06   9861.668       1.854256    
  8.0473301E-06  9.1188203E-06   8802.327       1.805740    
  9.1188203E-06  1.0333000E-05   7534.437       1.980212    
  1.0333000E-05  1.1708800E-05   6405.813       1.965954    
  1.1708800E-05  1.3267800E-05   5481.806       1.877290    
  1.3267800E-05  1.5034400E-05   4790.530       1.948987    
  1.5034400E-05  1.7036200E-05   3885.396       2.093481    
  1.7036200E-05  1.9304500E-05   3409.934       1.908229    
  1.9304500E-05  2.1334799E-05   3000.954       2.371729    
  2.1334799E-05  2.1874899E-05   2683.031       4.461353    
  2.1874899E-05  2.3578599E-05   2515.256       2.751077    
  2.3578599E-05  2.4175501E-05   2345.250       4.393585    
  2.4175501E-05  2.4787500E-05   2387.908       4.181434    
  2.4787500E-05  2.6058400E-05   2252.462       3.151919    
  2.6058400E-05  2.8087899E-05   2283.448       2.609710    
  2.8087899E-05  3.1827800E-05   2461.320       1.837185    
  3.1827800E-05  3.4306700E-05   1400.256       2.764133    
  3.4306700E-05  3.5175199E-05   716.5181       7.116633    
  3.5175199E-05  3.6065601E-05   625.4169       7.314140    
  3.6065601E-05  4.0867701E-05   880.4716       2.716019    
  4.0867701E-05  4.6309200E-05   1017.750       2.392702    
  4.6309200E-05  5.2475199E-05   921.5611       2.303490    
  5.2475199E-05  5.6562199E-05   856.4586       3.108669    
  5.6562199E-05  5.9462200E-05   792.5265       3.709943    
  5.9462200E-05  6.2510902E-05   797.2078       3.440470    
  6.2510902E-05  6.7379500E-05   736.2036       2.748294    
  6.7379500E-05  7.6350902E-05   746.7191       2.149369    
  7.6350902E-05  8.6516899E-05   494.1439       2.483620    
  8.6516899E-05  9.8036500E-05   283.5519       2.958679    
  9.8036500E-05  1.1109000E-04   383.1758       2.440021    
  1.1109000E-04  1.1678600E-04   346.5877       3.529282    
  1.1678600E-04  1.2277300E-04   248.9793       4.163342    
  1.2277300E-04  1.2906799E-04   362.8459       3.551378    
  1.2906799E-04  1.3568600E-04   368.0378       3.618041    
  1.3568600E-04  1.4264201E-04   275.5585       3.528022    
  1.4264201E-04  1.4995600E-04   210.9764       4.299613    
  1.4995600E-04  1.5764400E-04   194.3100       4.198070    
  1.5764400E-04  1.6163501E-04   151.7928       6.615327    
  1.6163501E-04  1.6572700E-04   167.5030       5.708532    
  1.6572700E-04  1.6992200E-04   206.2024       5.940640    
  1.6992200E-04  1.7422400E-04   195.1483       5.520498    
  1.7422400E-04  1.8315599E-04   188.1784       3.776169    
  1.8315599E-04  1.9254700E-04   205.2440       3.849029    
  1.9254700E-04  2.0241900E-04   183.8207       3.665956    
  2.0241900E-04  2.1279699E-04   147.8416       4.224139    
  2.1279699E-04  2.2370800E-04   151.9630       3.913795    
  2.2370800E-04  2.3517800E-04   140.4708       3.798993    
  2.3517800E-04  2.4723500E-04   149.2368       3.738418    
  2.4723500E-04  2.5991100E-04   145.5445       3.650838    
  2.5991100E-04  2.7323700E-04   154.3653       3.373271    
  2.7323700E-04  2.8015400E-04   135.4925       5.020461    
  2.8015400E-04  2.8724599E-04   116.5069       5.006462    
  2.8724599E-04  2.9451799E-04   101.5190       5.838235    
  2.9451799E-04  3.0197401E-04   107.3959       5.538918    
  3.0197401E-04  3.0961799E-04   110.8986       5.268990    
  3.0961799E-04  3.1745600E-04   105.3159       5.770460    
  3.1745600E-04  3.3373301E-04   102.1343       3.709219    
  3.3373301E-04  3.5084400E-04   105.1195       3.849410    
  3.5084400E-04  3.6883200E-04   95.79514       3.902585    
  3.6883200E-04  3.8774201E-04   86.10722       3.866888    
  3.8774201E-04  4.0762199E-04   82.63229       3.749033    
  4.0762199E-04  4.2852099E-04   71.13090       4.009752    
  4.2852099E-04  4.5049199E-04   66.03921       4.035477    
  4.5049199E-04  4.7358900E-04   64.07459       3.596626    
  4.7358900E-04  4.9787102E-04   63.99573       3.848126    
  4.9787102E-04  5.1047403E-04   59.35896       5.275110    
  5.1047403E-04  5.2339700E-04   59.66878       5.333675    
  5.2339700E-04  5.3664698E-04   48.77131       5.136949    
  5.3664698E-04  5.5023201E-04   55.47099       5.354069    
  5.5023201E-04  5.7844300E-04   50.15978       3.920967    
  5.7844300E-04  6.0810102E-04   45.49084       3.926668    
  6.0810102E-04  6.3927902E-04   40.85052       4.087723    
  6.3927902E-04  6.7205500E-04   37.39226       4.128501    
  6.7205500E-04  7.0651202E-04   35.67706       3.488737    
  7.0651202E-04  7.4273598E-04   30.78992       3.910251    
  7.4273598E-04  7.8081700E-04   26.59746       3.642723    
  7.8081700E-04  8.2085002E-04   23.40718       3.839477    
  8.2085002E-04  8.6293602E-04   21.35912       4.162366    
  8.6293602E-04  9.0717903E-04   19.28464       3.908212    
  9.0717903E-04  9.5369201E-04   17.34945       3.727103    
  9.5369201E-04  9.6163998E-04   15.25436       9.311868    
  9.6163998E-04  9.7783399E-04   16.87547       6.321504    
  9.7783399E-04  1.0025901E-03   16.93464       5.616667    
  1.0025901E-03  1.0539900E-03   16.76333       4.320811    
  1.0539900E-03  1.1080300E-03   14.86172       3.801173    
  1.1080300E-03  1.1648400E-03   14.15860       3.949125    
  1.1648400E-03  1.1943300E-03   14.53287       5.333923    
  1.1943300E-03  1.2245600E-03   13.88404       5.312222    
  1.2245600E-03  1.2873500E-03   13.46956       3.753577    
  1.2873500E-03  1.3533500E-03   12.71682       3.685226    
  1.3533500E-03  1.4227401E-03   12.94793       3.872952    
  1.4227401E-03  1.4956900E-03   13.15821       3.760516    
  1.4956900E-03  1.5335500E-03   12.47161       4.843952    
  1.5335500E-03  1.5723699E-03   12.52016       5.232989    
  1.5723699E-03  1.6121800E-03   12.91708       5.288872    
  1.6121800E-03  1.6529900E-03   12.20133       5.534148    
  1.6529900E-03  1.7377400E-03   12.97326       3.854892    
  1.7377400E-03  1.8268300E-03   12.67894       4.042461    
  1.8268300E-03  1.8730800E-03   12.69014       5.498196    
  1.8730800E-03  1.9205000E-03   11.46894       5.293845    
  1.9205000E-03  1.9691200E-03   11.19389       5.652748    
  1.9691200E-03  2.0189700E-03   11.88805       5.092697    
  2.0189700E-03  2.1224800E-03   10.88669       3.810545    
  2.1224800E-03  2.2313001E-03   10.26921       3.799207    
  2.2313001E-03  2.2688799E-03   10.35683       6.587831    
  2.2688799E-03  2.3068599E-03   9.239047       7.168591    
  2.3068599E-03  2.3457000E-03   10.06188       6.769730    
  2.3457000E-03  2.3652499E-03   9.780915       8.984209    
  2.3652499E-03  2.3852000E-03   10.15851       9.164238    
  2.3852000E-03  2.4251300E-03   10.22533       5.996501    
  2.4251300E-03  2.4659701E-03   9.521973       6.390602    
  2.4659701E-03  2.5923999E-03   8.869532       4.017592    
  2.5923999E-03  2.7253199E-03   8.763950       4.088902    
  2.7253199E-03  2.8650500E-03   8.027249       4.032740    
  2.8650500E-03  3.0119400E-03   6.947394       4.141182    
  3.0119400E-03  3.0881900E-03   8.098260       5.396231    
  3.0881900E-03  3.1663701E-03   7.426892       5.417489    
  3.1663701E-03  3.2465300E-03   6.619883       5.891690    
  3.2465300E-03  3.3287101E-03   5.851475       5.847719    
  3.3287101E-03  3.4993801E-03   6.367506       3.990929    
  3.4993801E-03  3.6787901E-03   6.148827       4.079812    
  3.6787901E-03  3.8674099E-03   5.522148       4.341907    
  3.8674099E-03  4.0656999E-03   5.979319       4.013467    
  4.0656999E-03  4.2741499E-03   5.629428       4.070216    
  4.2741499E-03  4.4932901E-03   5.226322       4.206692    
  4.4932901E-03  4.6070400E-03   5.516470       5.480230    
  4.6070400E-03  4.7236700E-03   4.978153       5.987597    
  4.7236700E-03  4.8432499E-03   4.986240       5.568262    
  4.8432499E-03  4.9658502E-03   4.738001       5.911297    
  4.9658502E-03  5.2204598E-03   4.194567       4.359054    
  5.2204598E-03  5.4881200E-03   4.336186       4.118297    
  5.4881200E-03  5.7695000E-03   4.183164       4.411719    
  5.7695000E-03  5.9155500E-03   3.936327       6.523791    
  5.9155500E-03  6.0653100E-03   3.851768       5.974047    
  6.0653100E-03  6.2188501E-03   3.663711       6.402366    
  6.2188501E-03  6.3762800E-03   3.591007       6.393852    
  6.3762800E-03  6.5377001E-03   3.537950       5.954071    
  6.5377001E-03  6.5923799E-03   3.727802       9.812771    
  6.5923799E-03  6.6475999E-03   3.564864       10.41862    
  6.6475999E-03  6.7031998E-03   3.110826       11.05373    
  6.7031998E-03  6.8728901E-03   3.669736       6.096134    
  6.8728901E-03  7.0468802E-03   3.367738       6.718422    
  7.0468802E-03  7.2252699E-03   3.060927       5.420873    
  7.2252699E-03  7.4081798E-03   2.891226       6.440255    
  7.4081798E-03  7.5957198E-03   2.794543       6.507950    
  7.5957198E-03  7.7880099E-03   2.583149       6.626060    
  7.7880099E-03  7.9851598E-03   2.772105       6.864062    
  7.9851598E-03  8.1873098E-03   2.834360       6.263321    
  8.1873098E-03  8.3945701E-03   2.705134       5.881921    
  8.3945701E-03  8.6070802E-03   2.813691       6.038671    
  8.6070802E-03  8.8249696E-03   2.572362       6.268207    
  8.8249696E-03  9.0483697E-03   2.627793       5.805049    
  9.0483697E-03  9.2774397E-03   2.342386       6.030878    
  9.2774397E-03  9.5122904E-03   2.361487       6.296872    
  9.5122904E-03  9.7530996E-03   2.539217       6.412142    
  9.7530996E-03  9.9999998E-03   2.293125       6.569105    
  9.9999998E-03  1.0253200E-02   2.116361       6.341165    
  1.0253200E-02  1.0512700E-02   2.222743       5.887446    
  1.0512700E-02  1.0778800E-02   2.248910       6.395869    
  1.0778800E-02  1.1051700E-02   2.300971       6.338206    
  1.1051700E-02  1.1331500E-02   2.036547       6.721426    
  1.1331500E-02  1.1618300E-02   1.989988       6.304907    
  1.1618300E-02  1.1912500E-02   1.837715       6.184608    
  1.1912500E-02  1.2214000E-02   1.602193       6.442360    
  1.2214000E-02  1.2523200E-02   2.102120       6.016983    
  1.2523200E-02  1.2840200E-02   1.839210       6.175216    
  1.2840200E-02  1.3165300E-02   1.720178       6.597447    
  1.3165300E-02  1.3498600E-02   1.887978       6.042267    
  1.3498600E-02  1.3840300E-02   1.736697       6.182053    
  1.3840300E-02  1.4190700E-02   1.623792       6.291813    
  1.4190700E-02  1.4549900E-02   1.673689       6.429433    
  1.4549900E-02  1.4918300E-02   1.646580       6.782704    
  1.4918300E-02  1.5295900E-02   1.492380       6.483410    
  1.5295900E-02  1.5683100E-02   1.658003       6.548308    
  1.5683100E-02  1.6080100E-02   1.707908       5.985991    
  1.6080100E-02  1.6487200E-02   1.614469       6.606585    
  1.6487200E-02  1.6904600E-02   1.303299       6.506247    
  1.6904600E-02  1.7332500E-02   1.310546       7.275734    
  1.7332500E-02  1.7771300E-02   1.357116       6.658314    
  1.7771300E-02  1.8221200E-02   1.437602       7.623416    
  1.8221200E-02  1.8682500E-02   1.289230       7.629067    
  1.8682500E-02  1.9155400E-02   1.235475       6.397622    
  1.9155400E-02  1.9640300E-02   1.272069       6.336793    
  1.9640300E-02  2.0000000E-02   1.261217       8.396952    
  2.0000000E-02  2.5174996E-02   1.212666       2.319979    
  2.5174996E-02  3.1689022E-02   1.110077       2.174572    
  3.1689022E-02  3.9888553E-02   1.003368       2.126115    
  3.9888553E-02  5.0209712E-02  0.9447105       1.958523    
  5.0209712E-02  6.3201472E-02  0.8440798       1.843277    
  6.3201472E-02  7.9554841E-02  0.7235523       1.934227    
  7.9554841E-02  0.1001396      0.5424824       2.169415    
  0.1001396      0.1260508      0.4037730       2.116196    
  0.1260508      0.1586664      0.2971058       2.237854    
  0.1586664      0.1997213      0.1899917       2.720731    
  0.1997213      0.2513991      9.8980077E-02   3.405816    
  0.2513991      0.3164486      3.4391172E-02   5.083940    
  0.3164486      0.3983297      4.1463808E-03   14.90501    
  0.3983297      0.5013974       0.000000       0.000000    
  0.5013974      0.6311339       0.000000       0.000000    
  0.6311339      0.7944397       0.000000       0.000000    
  0.7944397       1.000001       0.000000       0.000000    
