 # Detector n:  1  HeIInflux 
 # N. of energy intervals 260
  1.0000100E-14  2.0000000E-13  5.5022350E+10   17.72223    
  2.0000000E-13  2.9297300E-13  1.3849349E+11   16.19491    
  2.9297300E-13  4.2916701E-13  1.6630684E+11   12.35703    
  4.2916701E-13  6.2867300E-13  2.3210800E+11   5.314836    
  6.2867300E-13  9.2092198E-13  2.8814760E+11   3.976317    
  9.2092198E-13  1.3490300E-12  4.2680045E+11   3.612719    
  1.3490300E-12  1.9761499E-12  5.6471971E+11   3.383069    
  1.9761499E-12  2.8947901E-12  7.2157410E+11   2.118172    
  2.8947901E-12  4.2404799E-12  9.1013546E+11   1.423420    
  4.2404799E-12  6.2117499E-12  1.0000657E+12   1.146848    
  6.2117499E-12  9.0993801E-12  1.0526368E+12   1.266679    
  9.0993801E-12  1.3329400E-11  9.4364801E+11   1.346031    
  1.3329400E-11  1.9525799E-11  7.1526718E+11  0.8433121    
  1.9525799E-11  2.8602700E-11  4.3317386E+11  0.5763039    
  2.8602700E-11  4.1899099E-11  2.0379605E+11   1.109688    
  4.1899099E-11  6.1376598E-11  8.0988758E+10   1.601476    
  6.1376598E-11  8.9908601E-11  3.5676680E+10   1.916196    
  8.9908601E-11  1.3170399E-10  1.7689121E+10   1.164348    
  1.3170399E-10  1.9292901E-10  1.0000189E+10   1.004138    
  1.9292901E-10  2.8261499E-10  6.1751506E+09  0.8310456    
  2.8261499E-10  4.1399401E-10  4.0247905E+09  0.6333023    
  4.1399401E-10  5.3157900E-10  2.8922452E+09  0.9263934    
  5.3157900E-10  6.2506200E-10  2.3178673E+09   1.039374    
  6.2506200E-10  6.8256001E-10  2.1045770E+09   1.286777    
  6.8256001E-10  8.3368101E-10  1.7970815E+09  0.9507613    
  8.3368101E-10  8.7642499E-10  1.5922898E+09   1.268612    
  8.7642499E-10  1.1253500E-09  1.3523068E+09   1.055325    
  1.1253500E-09  1.4449800E-09  1.0652605E+09  0.9214150    
  1.4449800E-09  1.8553900E-09  8.1027936E+08  0.8741844    
  1.8553900E-09  2.3823701E-09  6.4086074E+08  0.6004747    
  2.3823701E-09  3.0590199E-09  4.9792986E+08  0.7378231    
  3.0590199E-09  3.9278598E-09  3.8585741E+08  0.7692847    
  3.9278598E-09  5.0434799E-09  3.0197827E+08  0.7611483    
  5.0434799E-09  6.4759500E-09  2.3167534E+08  0.9329361    
  6.4759500E-09  8.3152898E-09  1.8370299E+08  0.6187384    
  8.3152898E-09  1.0677000E-08  1.4157467E+08  0.6287972    
  1.0677000E-08  1.3709600E-08  1.1370078E+08  0.6972386    
  1.3709600E-08  1.7603501E-08  8.7420720E+07  0.7279547    
  1.7603501E-08  2.2603301E-08  6.7661800E+07  0.8842706    
  2.2603301E-08  2.9023200E-08  5.2426696E+07  0.8076764    
  2.9023200E-08  3.7266499E-08  4.1472716E+07  0.8610097    
  3.7266499E-08  4.7851199E-08  3.2106072E+07  0.6755397    
  4.7851199E-08  6.1442101E-08  2.5223116E+07  0.8570616    
  6.1442101E-08  7.8893301E-08  1.9461724E+07  0.5370343    
  7.8893301E-08  1.0130100E-07  1.5118850E+07  0.7347726    
  1.0130100E-07  1.3007300E-07  1.1701052E+07  0.5458962    
  1.3007300E-07  1.6701701E-07   9056295.      0.7344830    
  1.6701701E-07  2.1445400E-07   7024118.      0.6903916    
  2.1445400E-07  2.7536399E-07   5471880.      0.6162215    
  2.7536399E-07  3.5357499E-07   4265584.      0.7922673    
  3.5357499E-07  4.5399901E-07   3318607.      0.3873523    
  4.5399901E-07  5.8294700E-07   2554404.       1.201319    
  5.8294700E-07  7.4851800E-07   1976786.      0.5775123    
  7.4851800E-07  9.6111603E-07   1482501.      0.6862351    
  9.6111603E-07  1.2341000E-06   1156326.      0.6829807    
  1.2341000E-06  1.3638900E-06   965784.1       1.083863    
  1.3638900E-06  1.5073300E-06   858430.6       1.246890    
  1.5073300E-06  1.5846100E-06   817531.9       1.909376    
  1.5846100E-06  1.6658601E-06   767263.6       1.649128    
  1.6658601E-06  1.8410600E-06   702702.2       1.174474    
  1.8410600E-06  2.0346799E-06   636658.0       1.158121    
  2.0346799E-06  2.2486699E-06   568964.5       1.398176    
  2.2486699E-06  2.4851699E-06   514177.4       1.329507    
  2.4851699E-06  2.6125899E-06   468911.9       2.117459    
  2.6125899E-06  2.7465401E-06   451347.0       1.580773    
  2.7465401E-06  2.8634900E-06   436514.1       2.103815    
  2.8634900E-06  3.0353899E-06   402233.6       1.609907    
  3.0353899E-06  3.3546301E-06   361515.7       1.471336    
  3.3546301E-06  3.7074401E-06   330338.8       1.321318    
  3.7074401E-06  4.0973500E-06   295327.3       1.271694    
  4.0973500E-06  4.3074201E-06   271274.8       1.716802    
  4.3074201E-06  4.5282700E-06   267277.4       1.842592    
  4.5282700E-06  5.0045101E-06   239553.0       1.266279    
  5.0045101E-06  5.5308401E-06   230061.2       1.424906    
  5.5308401E-06  6.2672698E-06   171425.5       1.335230    
  6.2672698E-06  7.1017398E-06   166795.1      0.9838836    
  7.1017398E-06  8.0473301E-06   147331.3       1.134923    
  8.0473301E-06  9.1188203E-06   126892.2       1.091872    
  9.1188203E-06  1.0333000E-05   111046.0       1.186802    
  1.0333000E-05  1.1708800E-05   97319.03       1.185067    
  1.1708800E-05  1.3267800E-05   83720.07       1.147648    
  1.3267800E-05  1.5034400E-05   72786.84       1.239734    
  1.5034400E-05  1.7036200E-05   62754.75      0.9628081    
  1.7036200E-05  1.9304500E-05   54178.13       1.237604    
  1.9304500E-05  2.1334799E-05   48688.98       1.806181    
  2.1334799E-05  2.1874899E-05   45419.23       3.681582    
  2.1874899E-05  2.3578599E-05   42233.15       1.776250    
  2.3578599E-05  2.4175501E-05   38830.93       2.424780    
  2.4175501E-05  2.4787500E-05   39497.08       2.234620    
  2.4787500E-05  2.6058400E-05   38150.07       2.694824    
  2.6058400E-05  2.8087899E-05   35832.20       1.191164    
  2.8087899E-05  3.1827800E-05   37377.29       1.361988    
  3.1827800E-05  3.4306700E-05   26429.53       1.565816    
  3.4306700E-05  3.5175199E-05   12964.29       4.880869    
  3.5175199E-05  3.6065601E-05   12687.61       3.988756    
  3.6065601E-05  4.0867701E-05   16400.41       1.630504    
  4.0867701E-05  4.6309200E-05   17756.06       1.960930    
  4.6309200E-05  5.2475199E-05   16192.22       1.210086    
  5.2475199E-05  5.6562199E-05   14573.24       2.051099    
  5.6562199E-05  5.9462200E-05   14068.15       2.959386    
  5.9462200E-05  6.2510902E-05   13260.45       2.016603    
  6.2510902E-05  6.7379500E-05   12111.93       1.790746    
  6.7379500E-05  7.6350902E-05   11676.11       2.055080    
  7.6350902E-05  8.6516899E-05   9001.614       1.418649    
  8.6516899E-05  9.8036500E-05   5399.435       1.701083    
  9.8036500E-05  1.1109000E-04   6368.940       1.330581    
  1.1109000E-04  1.1678600E-04   5887.836       1.902695    
  1.1678600E-04  1.2277300E-04   4218.863       2.235512    
  1.2277300E-04  1.2906799E-04   5995.488       2.563581    
  1.2906799E-04  1.3568600E-04   5743.031       2.068094    
  1.3568600E-04  1.4264201E-04   4505.482       3.217452    
  1.4264201E-04  1.4995600E-04   3320.785       3.258631    
  1.4995600E-04  1.5764400E-04   3124.346       2.593922    
  1.5764400E-04  1.6163501E-04   2565.871       4.940090    
  1.6163501E-04  1.6572700E-04   3142.052       3.401478    
  1.6572700E-04  1.6992200E-04   3250.018       3.919418    
  1.6992200E-04  1.7422400E-04   3243.035       3.352948    
  1.7422400E-04  1.8315599E-04   3198.777       1.439562    
  1.8315599E-04  1.9254700E-04   3219.277       2.037601    
  1.9254700E-04  2.0241900E-04   2929.152       2.857399    
  2.0241900E-04  2.1279699E-04   2380.948       3.009485    
  2.1279699E-04  2.2370800E-04   2344.277       3.262578    
  2.2370800E-04  2.3517800E-04   2352.407       2.468090    
  2.3517800E-04  2.4723500E-04   2226.464       2.073077    
  2.4723500E-04  2.5991100E-04   2295.666       2.153598    
  2.5991100E-04  2.7323700E-04   2249.673       2.202413    
  2.7323700E-04  2.8015400E-04   1952.776       4.040090    
  2.8015400E-04  2.8724599E-04   1579.492       4.350495    
  2.8724599E-04  2.9451799E-04   1557.522       4.167387    
  2.9451799E-04  3.0197401E-04   1706.356       4.273329    
  3.0197401E-04  3.0961799E-04   1524.016       3.986442    
  3.0961799E-04  3.1745600E-04   1373.034       4.504052    
  3.1745600E-04  3.3373301E-04   1420.496       2.246016    
  3.3373301E-04  3.5084400E-04   1399.184       3.407418    
  3.5084400E-04  3.6883200E-04   1241.763       3.001797    
  3.6883200E-04  3.8774201E-04   1157.467       2.375332    
  3.8774201E-04  4.0762199E-04   1198.377       3.372410    
  4.0762199E-04  4.2852099E-04   957.8834       2.933746    
  4.2852099E-04  4.5049199E-04   851.3809       3.855927    
  4.5049199E-04  4.7358900E-04   854.6044       2.462482    
  4.7358900E-04  4.9787102E-04   825.4232       2.923338    
  4.9787102E-04  5.1047403E-04   767.3853       2.932312    
  5.1047403E-04  5.2339700E-04   801.9299       5.177402    
  5.2339700E-04  5.3664698E-04   639.5864       4.913660    
  5.3664698E-04  5.5023201E-04   641.3719       2.523187    
  5.5023201E-04  5.7844300E-04   592.8663       2.796047    
  5.7844300E-04  6.0810102E-04   591.2527       3.307684    
  6.0810102E-04  6.3927902E-04   508.8960       3.526179    
  6.3927902E-04  6.7205500E-04   452.8618       2.856760    
  6.7205500E-04  7.0651202E-04   436.4969       2.406595    
  7.0651202E-04  7.4273598E-04   369.3119       3.707151    
  7.4273598E-04  7.8081700E-04   356.7975       2.382882    
  7.8081700E-04  8.2085002E-04   266.9210       3.505486    
  8.2085002E-04  8.6293602E-04   240.7067       4.200121    
  8.6293602E-04  9.0717903E-04   214.5862       4.572399    
  9.0717903E-04  9.5369201E-04   188.1789       3.015714    
  9.5369201E-04  9.6163998E-04   193.7282       6.240078    
  9.6163998E-04  9.7783399E-04   178.2480       6.027794    
  9.7783399E-04  1.0025901E-03   162.2227       5.456084    
  1.0025901E-03  1.0539900E-03   155.8660       3.388230    
  1.0539900E-03  1.1080300E-03   139.1130       3.586677    
  1.1080300E-03  1.1648400E-03   141.1465       3.572549    
  1.1648400E-03  1.1943300E-03   124.7938       4.427136    
  1.1943300E-03  1.2245600E-03   118.2937       7.204170    
  1.2245600E-03  1.2873500E-03   128.8044       4.291318    
  1.2873500E-03  1.3533500E-03   118.3438       3.853785    
  1.3533500E-03  1.4227401E-03   113.4537       3.534719    
  1.4227401E-03  1.4956900E-03   112.0040       4.598144    
  1.4956900E-03  1.5335500E-03   112.4612       4.798455    
  1.5335500E-03  1.5723699E-03   101.2443       6.065553    
  1.5723699E-03  1.6121800E-03   107.3836       5.729493    
  1.6121800E-03  1.6529900E-03   91.30549       5.657421    
  1.6529900E-03  1.7377400E-03   89.86406       4.315669    
  1.7377400E-03  1.8268300E-03   92.48122       4.832220    
  1.8268300E-03  1.8730800E-03   88.89067       7.083489    
  1.8730800E-03  1.9205000E-03   87.87413       4.074670    
  1.9205000E-03  1.9691200E-03   78.67931       5.445417    
  1.9691200E-03  2.0189700E-03   74.59662       4.841430    
  2.0189700E-03  2.1224800E-03   66.30144       4.221353    
  2.1224800E-03  2.2313001E-03   68.27763       4.825868    
  2.2313001E-03  2.2688799E-03   63.22886       5.699934    
  2.2688799E-03  2.3068599E-03   62.83893       7.333964    
  2.3068599E-03  2.3457000E-03   65.20941       7.903857    
  2.3457000E-03  2.3652499E-03   57.45031       11.64650    
  2.3652499E-03  2.3852000E-03   80.57410       12.14644    
  2.3852000E-03  2.4251300E-03   52.23950       9.049436    
  2.4251300E-03  2.4659701E-03   46.86927       9.190981    
  2.4659701E-03  2.5923999E-03   50.77169       4.209464    
  2.5923999E-03  2.7253199E-03   44.74421       4.637072    
  2.7253199E-03  2.8650500E-03   37.94487       4.595841    
  2.8650500E-03  3.0119400E-03   36.23396       5.300584    
  3.0119400E-03  3.0881900E-03   32.28607       6.331677    
  3.0881900E-03  3.1663701E-03   25.26364       10.66210    
  3.1663701E-03  3.2465300E-03   29.28837       8.471711    
  3.2465300E-03  3.3287101E-03   28.08567       6.903749    
  3.3287101E-03  3.4993801E-03   26.89941       5.887401    
  3.4993801E-03  3.6787901E-03   25.49840       5.635473    
  3.6787901E-03  3.8674099E-03   24.00432       6.423820    
  3.8674099E-03  4.0656999E-03   21.93142       7.593585    
  4.0656999E-03  4.2741499E-03   21.31404       7.019068    
  4.2741499E-03  4.4932901E-03   20.89616       8.076825    
  4.4932901E-03  4.6070400E-03   18.27535       6.515742    
  4.6070400E-03  4.7236700E-03   18.08400       10.05174    
  4.7236700E-03  4.8432499E-03   14.22489       11.33750    
  4.8432499E-03  4.9658502E-03   14.94247       11.70830    
  4.9658502E-03  5.2204598E-03   17.39922       5.045047    
  5.2204598E-03  5.4881200E-03   13.49738       5.506836    
  5.4881200E-03  5.7695000E-03   11.86468       7.844857    
  5.7695000E-03  5.9155500E-03   12.92893       8.177555    
  5.9155500E-03  6.0653100E-03   11.35433       11.63121    
  6.0653100E-03  6.2188501E-03   12.30074       10.85219    
  6.2188501E-03  6.3762800E-03   11.48848       9.847713    
  6.3762800E-03  6.5377001E-03   10.97472       8.158932    
  6.5377001E-03  6.5923799E-03   11.25795       14.77603    
  6.5923799E-03  6.6475999E-03   11.12428       18.01365    
  6.6475999E-03  6.7031998E-03   10.80591       11.82677    
  6.7031998E-03  6.8728901E-03   10.12613       9.919199    
  6.8728901E-03  7.0468802E-03   8.423665       8.376081    
  7.0468802E-03  7.2252699E-03   8.061142       12.82922    
  7.2252699E-03  7.4081798E-03   8.640212       10.94324    
  7.4081798E-03  7.5957198E-03   8.112257       7.681194    
  7.5957198E-03  7.7880099E-03   8.524346       13.22609    
  7.7880099E-03  7.9851598E-03   8.504193       10.40057    
  7.9851598E-03  8.1873098E-03   9.258784       10.13847    
  8.1873098E-03  8.3945701E-03   7.769345       13.36384    
  8.3945701E-03  8.6070802E-03   7.038294       7.708732    
  8.6070802E-03  8.8249696E-03   6.636302       11.34867    
  8.8249696E-03  9.0483697E-03   6.201463       9.892511    
  9.0483697E-03  9.2774397E-03   6.880977       8.413989    
  9.2774397E-03  9.5122904E-03   5.877663       12.13638    
  9.5122904E-03  9.7530996E-03   6.302810       11.94470    
  9.7530996E-03  9.9999998E-03   5.558770       9.277014    
  9.9999998E-03  1.0253200E-02   7.046888       11.14339    
  1.0253200E-02  1.0512700E-02   5.478978       10.51586    
  1.0512700E-02  1.0778800E-02   5.323827       14.32342    
  1.0778800E-02  1.1051700E-02   4.185616       10.07184    
  1.1051700E-02  1.1331500E-02   4.399559       14.51701    
  1.1331500E-02  1.1618300E-02   5.051240       12.15797    
  1.1618300E-02  1.1912500E-02   3.717259       14.36391    
  1.1912500E-02  1.2214000E-02   4.270654       11.64956    
  1.2214000E-02  1.2523200E-02   3.788374       12.98898    
  1.2523200E-02  1.2840200E-02   3.311007       12.48850    
  1.2840200E-02  1.3165300E-02   4.100140       13.55009    
  1.3165300E-02  1.3498600E-02   3.535756       11.35928    
  1.3498600E-02  1.3840300E-02   3.590088       12.30595    
  1.3840300E-02  1.4190700E-02   4.094867       8.292546    
  1.4190700E-02  1.4549900E-02   3.253917       16.10671    
  1.4549900E-02  1.4918300E-02   3.643617       11.02560    
  1.4918300E-02  1.5295900E-02   3.114724       13.99170    
  1.5295900E-02  1.5683100E-02   3.029129       9.899568    
  1.5683100E-02  1.6080100E-02   3.218341       10.01033    
  1.6080100E-02  1.6487200E-02   4.156078       6.857035    
  1.6487200E-02  1.6904600E-02   2.606126       15.65787    
  1.6904600E-02  1.7332500E-02   2.901352       14.41667    
  1.7332500E-02  1.7771300E-02   2.498172       16.89618    
  1.7771300E-02  1.8221200E-02   3.120067       12.60739    
  1.8221200E-02  1.8682500E-02   2.388625       12.97038    
  1.8682500E-02  1.9155400E-02   2.552943       12.87030    
  1.9155400E-02  1.9640300E-02   2.183919       9.147760    
  1.9640300E-02  2.0000000E-02   2.622916       16.05639    
