 # Detector n:  1  HeIInflux 
 # N. of energy intervals 260
  1.0000100E-14  2.0000000E-13  2.7057279E+10   24.83148    
  2.0000000E-13  2.9297300E-13  9.8464154E+10   29.81235    
  2.9297300E-13  4.2916701E-13  1.0864672E+11   15.68883    
  4.2916701E-13  6.2867300E-13  1.5353445E+11   10.14495    
  6.2867300E-13  9.2092198E-13  1.9582019E+11   5.121405    
  9.2092198E-13  1.3490300E-12  2.8080888E+11   4.929458    
  1.3490300E-12  1.9761499E-12  3.9122528E+11   3.790227    
  1.9761499E-12  2.8947901E-12  5.0984160E+11   4.016597    
  2.8947901E-12  4.2404799E-12  6.0792865E+11   1.534067    
  4.2404799E-12  6.2117499E-12  6.9995626E+11   1.591840    
  6.2117499E-12  9.0993801E-12  7.3093343E+11   1.351640    
  9.0993801E-12  1.3329400E-11  6.6424970E+11  0.9486325    
  1.3329400E-11  1.9525799E-11  5.0044856E+11   1.022503    
  1.9525799E-11  2.8602700E-11  3.0515708E+11   1.201576    
  2.8602700E-11  4.1899099E-11  1.3740287E+11   1.416959    
  4.1899099E-11  6.1376598E-11  5.7358189E+10   2.036186    
  6.1376598E-11  8.9908601E-11  2.4991048E+10   1.273723    
  8.9908601E-11  1.3170399E-10  1.2955570E+10   1.355419    
  1.3170399E-10  1.9292901E-10  7.5693220E+09   1.170083    
  1.9292901E-10  2.8261499E-10  4.7630336E+09   1.020069    
  2.8261499E-10  4.1399401E-10  3.1907177E+09   1.094316    
  4.1399401E-10  5.3157900E-10  2.2895076E+09   1.136957    
  5.3157900E-10  6.2506200E-10  1.9014013E+09   1.003888    
  6.2506200E-10  6.8256001E-10  1.6438976E+09   1.452338    
  6.8256001E-10  8.3368101E-10  1.3866916E+09  0.9106006    
  8.3368101E-10  8.7642499E-10  1.2249495E+09   1.654965    
  8.7642499E-10  1.1253500E-09  1.0754524E+09  0.9943575    
  1.1253500E-09  1.4449800E-09  8.4303622E+08  0.8277363    
  1.4449800E-09  1.8553900E-09  6.5472474E+08  0.8186486    
  1.8553900E-09  2.3823701E-09  5.0392970E+08   1.002575    
  2.3823701E-09  3.0590199E-09  3.9788493E+08  0.6075234    
  3.0590199E-09  3.9278598E-09  3.1115053E+08   1.175412    
  3.9278598E-09  5.0434799E-09  2.4178131E+08  0.8365391    
  5.0434799E-09  6.4759500E-09  1.9042578E+08  0.8024083    
  6.4759500E-09  8.3152898E-09  1.4672034E+08  0.8336005    
  8.3152898E-09  1.0677000E-08  1.1688632E+08  0.8771904    
  1.0677000E-08  1.3709600E-08  8.9933584E+07  0.7845696    
  1.3709600E-08  1.7603501E-08  6.9906896E+07  0.9131730    
  1.7603501E-08  2.2603301E-08  5.4605836E+07  0.6893895    
  2.2603301E-08  2.9023200E-08  4.2455832E+07   1.413932    
  2.9023200E-08  3.7266499E-08  3.3916672E+07  0.7761766    
  3.7266499E-08  4.7851199E-08  2.5430652E+07  0.7459091    
  4.7851199E-08  6.1442101E-08  2.0251764E+07  0.5731678    
  6.1442101E-08  7.8893301E-08  1.5903779E+07   1.064486    
  7.8893301E-08  1.0130100E-07  1.2278487E+07  0.8495912    
  1.0130100E-07  1.3007300E-07   9719301.      0.7899463    
  1.3007300E-07  1.6701701E-07   7449223.      0.7853527    
  1.6701701E-07  2.1445400E-07   5761066.      0.7565830    
  2.1445400E-07  2.7536399E-07   4422619.      0.6218392    
  2.7536399E-07  3.5357499E-07   3425184.      0.7130150    
  3.5357499E-07  4.5399901E-07   2665209.       1.032546    
  4.5399901E-07  5.8294700E-07   2092532.       1.046884    
  5.8294700E-07  7.4851800E-07   1587446.      0.6832368    
  7.4851800E-07  9.6111603E-07   1234778.      0.9231575    
  9.6111603E-07  1.2341000E-06   935389.5      0.9599676    
  1.2341000E-06  1.3638900E-06   800395.2       1.966963    
  1.3638900E-06  1.5073300E-06   706073.8       1.361017    
  1.5073300E-06  1.5846100E-06   654328.4       2.117602    
  1.5846100E-06  1.6658601E-06   634858.8       2.226911    
  1.6658601E-06  1.8410600E-06   571497.8       1.781949    
  1.8410600E-06  2.0346799E-06   527157.2       1.527955    
  2.0346799E-06  2.2486699E-06   479075.1       1.155551    
  2.2486699E-06  2.4851699E-06   417016.0       1.275260    
  2.4851699E-06  2.6125899E-06   386719.5       1.390650    
  2.6125899E-06  2.7465401E-06   369749.8       1.503057    
  2.7465401E-06  2.8634900E-06   352418.8       1.809372    
  2.8634900E-06  3.0353899E-06   330109.2       2.074014    
  3.0353899E-06  3.3546301E-06   304478.2       1.211849    
  3.3546301E-06  3.7074401E-06   263927.2       1.497188    
  3.7074401E-06  4.0973500E-06   247430.0       1.218522    
  4.0973500E-06  4.3074201E-06   217558.5       2.655770    
  4.3074201E-06  4.5282700E-06   204039.9       3.029757    
  4.5282700E-06  5.0045101E-06   200634.4       1.650636    
  5.0045101E-06  5.5308401E-06   197369.6       1.405576    
  5.5308401E-06  6.2672698E-06   132592.1       1.645368    
  6.2672698E-06  7.1017398E-06   134027.5       1.353855    
  7.1017398E-06  8.0473301E-06   119573.9       1.547837    
  8.0473301E-06  9.1188203E-06   104287.6       1.469861    
  9.1188203E-06  1.0333000E-05   90321.08       1.516826    
  1.0333000E-05  1.1708800E-05   76079.74      0.7125000    
  1.1708800E-05  1.3267800E-05   68890.64       1.240140    
  1.3267800E-05  1.5034400E-05   60294.47       1.125423    
  1.5034400E-05  1.7036200E-05   52317.21       1.053169    
  1.7036200E-05  1.9304500E-05   43914.33       1.177785    
  1.9304500E-05  2.1334799E-05   37970.75       1.159058    
  2.1334799E-05  2.1874899E-05   34515.47       3.711568    
  2.1874899E-05  2.3578599E-05   33502.83       1.967969    
  2.3578599E-05  2.4175501E-05   32302.25       2.008311    
  2.4175501E-05  2.4787500E-05   30284.57       3.047284    
  2.4787500E-05  2.6058400E-05   29814.60       2.858739    
  2.6058400E-05  2.8087899E-05   29856.21       1.908531    
  2.8087899E-05  3.1827800E-05   31798.14       1.048401    
  3.1827800E-05  3.4306700E-05   20246.62       2.595394    
  3.4306700E-05  3.5175199E-05   10517.76       3.254997    
  3.5175199E-05  3.6065601E-05   9714.231       4.318108    
  3.6065601E-05  4.0867701E-05   12366.68       1.493782    
  4.0867701E-05  4.6309200E-05   14125.45       1.410861    
  4.6309200E-05  5.2475199E-05   12977.61       1.231244    
  5.2475199E-05  5.6562199E-05   11507.57       2.489940    
  5.6562199E-05  5.9462200E-05   10736.41       2.361083    
  5.9462200E-05  6.2510902E-05   10616.37       2.781415    
  6.2510902E-05  6.7379500E-05   9939.399       2.169722    
  6.7379500E-05  7.6350902E-05   9744.405       1.227265    
  7.6350902E-05  8.6516899E-05   6986.276       1.620602    
  8.6516899E-05  9.8036500E-05   4102.504       2.461199    
  9.8036500E-05  1.1109000E-04   4930.615       1.188805    
  1.1109000E-04  1.1678600E-04   4818.735       2.692199    
  1.1678600E-04  1.2277300E-04   3474.865       4.318149    
  1.2277300E-04  1.2906799E-04   4762.447       2.018809    
  1.2906799E-04  1.3568600E-04   4948.996       1.694976    
  1.3568600E-04  1.4264201E-04   3524.366       2.631254    
  1.4264201E-04  1.4995600E-04   2589.663       1.946990    
  1.4995600E-04  1.5764400E-04   2485.480       2.600595    
  1.5764400E-04  1.6163501E-04   1882.457       6.445589    
  1.6163501E-04  1.6572700E-04   2430.538       5.003135    
  1.6572700E-04  1.6992200E-04   2461.144       2.769946    
  1.6992200E-04  1.7422400E-04   2601.230       2.817858    
  1.7422400E-04  1.8315599E-04   2433.447       3.124655    
  1.8315599E-04  1.9254700E-04   2575.403       1.657797    
  1.9254700E-04  2.0241900E-04   2350.751       3.319556    
  2.0241900E-04  2.1279699E-04   1747.848       3.023336    
  2.1279699E-04  2.2370800E-04   1746.916       3.069224    
  2.2370800E-04  2.3517800E-04   1727.680       2.867888    
  2.3517800E-04  2.4723500E-04   1741.464       3.407591    
  2.4723500E-04  2.5991100E-04   1697.447       3.687000    
  2.5991100E-04  2.7323700E-04   1829.443       2.998234    
  2.7323700E-04  2.8015400E-04   1642.014       4.435956    
  2.8015400E-04  2.8724599E-04   1155.580       5.865951    
  2.8724599E-04  2.9451799E-04   1242.701       5.758890    
  2.9451799E-04  3.0197401E-04   1307.532       3.815046    
  3.0197401E-04  3.0961799E-04   1208.224       3.364376    
  3.0961799E-04  3.1745600E-04   1160.385       4.139028    
  3.1745600E-04  3.3373301E-04   1162.117       3.281159    
  3.3373301E-04  3.5084400E-04   1102.632       3.430578    
  3.5084400E-04  3.6883200E-04   957.0626       3.427974    
  3.6883200E-04  3.8774201E-04   956.3932       3.518315    
  3.8774201E-04  4.0762199E-04   870.7427       3.185441    
  4.0762199E-04  4.2852099E-04   706.9412       2.337456    
  4.2852099E-04  4.5049199E-04   629.0685       4.660747    
  4.5049199E-04  4.7358900E-04   649.5282       2.878506    
  4.7358900E-04  4.9787102E-04   655.5663       2.890874    
  4.9787102E-04  5.1047403E-04   642.2922       7.156125    
  5.1047403E-04  5.2339700E-04   599.0502       4.066965    
  5.2339700E-04  5.3664698E-04   474.5374       7.389495    
  5.3664698E-04  5.5023201E-04   494.0236       4.937483    
  5.5023201E-04  5.7844300E-04   493.8010       3.233694    
  5.7844300E-04  6.0810102E-04   434.5041       2.270493    
  6.0810102E-04  6.3927902E-04   404.3768       2.575193    
  6.3927902E-04  6.7205500E-04   358.3433       3.640405    
  6.7205500E-04  7.0651202E-04   357.8759       3.541073    
  7.0651202E-04  7.4273598E-04   318.3967       3.286863    
  7.4273598E-04  7.8081700E-04   276.1020       3.753252    
  7.8081700E-04  8.2085002E-04   220.6124       3.141502    
  8.2085002E-04  8.6293602E-04   203.7518       3.404864    
  8.6293602E-04  9.0717903E-04   182.0900       3.028129    
  9.0717903E-04  9.5369201E-04   162.2688       3.551355    
  9.5369201E-04  9.6163998E-04   149.1856       9.648457    
  9.6163998E-04  9.7783399E-04   152.7842       5.486847    
  9.7783399E-04  1.0025901E-03   142.8153       5.861437    
  1.0025901E-03  1.0539900E-03   130.6694       3.981079    
  1.0539900E-03  1.1080300E-03   128.7484       3.122828    
  1.1080300E-03  1.1648400E-03   121.4907       4.774875    
  1.1648400E-03  1.1943300E-03   95.06352       5.938427    
  1.1943300E-03  1.2245600E-03   97.14361       5.609353    
  1.2245600E-03  1.2873500E-03   101.4986       4.668786    
  1.2873500E-03  1.3533500E-03   102.2889       5.089613    
  1.3533500E-03  1.4227401E-03   97.96361       4.064734    
  1.4227401E-03  1.4956900E-03   79.76468       6.710048    
  1.4956900E-03  1.5335500E-03   92.74580       5.638476    
  1.5335500E-03  1.5723699E-03   83.89384       5.213738    
  1.5723699E-03  1.6121800E-03   87.15685       6.885735    
  1.6121800E-03  1.6529900E-03   78.71522       5.130423    
  1.6529900E-03  1.7377400E-03   74.57143       4.185065    
  1.7377400E-03  1.8268300E-03   74.75326       5.104309    
  1.8268300E-03  1.8730800E-03   63.81218       7.976903    
  1.8730800E-03  1.9205000E-03   65.99623       7.131848    
  1.9205000E-03  1.9691200E-03   58.98899       6.780404    
  1.9691200E-03  2.0189700E-03   66.18940       6.098473    
  2.0189700E-03  2.1224800E-03   57.00623       6.418562    
  2.1224800E-03  2.2313001E-03   52.51526       4.484488    
  2.2313001E-03  2.2688799E-03   50.58663       9.041978    
  2.2688799E-03  2.3068599E-03   47.98647       8.428449    
  2.3068599E-03  2.3457000E-03   47.35526       7.644252    
  2.3457000E-03  2.3652499E-03   47.03339       13.33697    
  2.3652499E-03  2.3852000E-03   53.32410       9.870972    
  2.3852000E-03  2.4251300E-03   41.95005       7.777033    
  2.4251300E-03  2.4659701E-03   42.38608       9.762302    
  2.4659701E-03  2.5923999E-03   37.93592       4.247627    
  2.5923999E-03  2.7253199E-03   34.79284       4.807219    
  2.7253199E-03  2.8650500E-03   31.62658       5.112898    
  2.8650500E-03  3.0119400E-03   24.77132       7.714024    
  3.0119400E-03  3.0881900E-03   22.56470       11.62650    
  3.0881900E-03  3.1663701E-03   22.70603       8.568408    
  3.1663701E-03  3.2465300E-03   25.81796       9.342320    
  3.2465300E-03  3.3287101E-03   20.91635       7.287010    
  3.3287101E-03  3.4993801E-03   19.89069       6.008380    
  3.4993801E-03  3.6787901E-03   20.80787       7.580196    
  3.6787901E-03  3.8674099E-03   17.56185       6.386742    
  3.8674099E-03  4.0656999E-03   16.25433       6.801712    
  4.0656999E-03  4.2741499E-03   14.27541       6.716188    
  4.2741499E-03  4.4932901E-03   15.89500       5.835719    
  4.4932901E-03  4.6070400E-03   14.67804       10.94621    
  4.6070400E-03  4.7236700E-03   13.05339       11.16263    
  4.7236700E-03  4.8432499E-03   12.65765       8.331522    
  4.8432499E-03  4.9658502E-03   10.45405       6.710854    
  4.9658502E-03  5.2204598E-03   10.77612       7.175591    
  5.2204598E-03  5.4881200E-03   10.60114       8.147366    
  5.4881200E-03  5.7695000E-03   11.20600       5.235558    
  5.7695000E-03  5.9155500E-03   8.482639       10.64129    
  5.9155500E-03  6.0653100E-03   8.244589       15.55850    
  6.0653100E-03  6.2188501E-03   8.511503       11.25687    
  6.2188501E-03  6.3762800E-03   10.05915       10.13069    
  6.3762800E-03  6.5377001E-03   7.074277       15.47135    
  6.5377001E-03  6.5923799E-03   9.568412       20.21493    
  6.5923799E-03  6.6475999E-03   7.884579       21.26415    
  6.6475999E-03  6.7031998E-03   10.38099       20.18094    
  6.7031998E-03  6.8728901E-03   8.939881       7.106776    
  6.8728901E-03  7.0468802E-03   8.658054       7.886291    
  7.0468802E-03  7.2252699E-03   5.469714       16.40239    
  7.2252699E-03  7.4081798E-03   5.485278       13.19993    
  7.4081798E-03  7.5957198E-03   6.745563       13.65434    
  7.5957198E-03  7.7880099E-03   6.313891       13.49370    
  7.7880099E-03  7.9851598E-03   6.211518       9.621850    
  7.9851598E-03  8.1873098E-03   5.793262       13.53212    
  8.1873098E-03  8.3945701E-03   6.286294       13.34177    
  8.3945701E-03  8.6070802E-03   4.625643       12.28239    
  8.6070802E-03  8.8249696E-03   5.008106       12.01737    
  8.8249696E-03  9.0483697E-03   4.479134       8.626220    
  9.0483697E-03  9.2774397E-03   5.251524       13.40844    
  9.2774397E-03  9.5122904E-03   5.164323       9.219455    
  9.5122904E-03  9.7530996E-03   4.762125       7.422786    
  9.7530996E-03  9.9999998E-03   3.816867       11.86283    
  9.9999998E-03  1.0253200E-02   3.919609       18.28045    
  1.0253200E-02  1.0512700E-02   3.665701       12.18688    
  1.0512700E-02  1.0778800E-02   3.925853       13.04097    
  1.0778800E-02  1.1051700E-02   3.755734       14.14532    
  1.1051700E-02  1.1331500E-02   3.711915       9.832999    
  1.1331500E-02  1.1618300E-02   3.787462       12.66906    
  1.1618300E-02  1.1912500E-02   3.206178       11.57535    
  1.1912500E-02  1.2214000E-02   3.476646       15.16569    
  1.2214000E-02  1.2523200E-02   3.303836       13.71424    
  1.2523200E-02  1.2840200E-02   3.027521       15.64420    
  1.2840200E-02  1.3165300E-02   3.381951       11.40471    
  1.3165300E-02  1.3498600E-02   2.509760       14.39028    
  1.3498600E-02  1.3840300E-02   2.878928       9.021948    
  1.3840300E-02  1.4190700E-02   2.839366       21.24377    
  1.4190700E-02  1.4549900E-02   2.505882       10.91192    
  1.4549900E-02  1.4918300E-02   2.428813       11.59690    
  1.4918300E-02  1.5295900E-02   2.268239       15.50181    
  1.5295900E-02  1.5683100E-02   2.549275       10.68675    
  1.5683100E-02  1.6080100E-02   2.611924       11.95330    
  1.6080100E-02  1.6487200E-02   2.083626       8.142749    
  1.6487200E-02  1.6904600E-02   2.318154       17.76248    
  1.6904600E-02  1.7332500E-02   2.052555       12.22677    
  1.7332500E-02  1.7771300E-02   2.367425       18.63104    
  1.7771300E-02  1.8221200E-02   2.383055       17.40067    
  1.8221200E-02  1.8682500E-02   1.698200       9.618320    
  1.8682500E-02  1.9155400E-02   1.358271       16.69735    
  1.9155400E-02  1.9640300E-02   1.288860       22.84491    
  1.9640300E-02  2.0000000E-02   1.487023       10.10989    
