 # Detector n:            1   HeIInflux 
 # N. of energy intervals         260
  1.0000100E-14  2.0000000E-13  1.8355229E+10   41.26371    
  2.0000000E-13  2.9297300E-13  3.5879207E+10   17.40163    
  2.9297300E-13  4.2916701E-13  3.6313137E+10   34.41330    
  4.2916701E-13  6.2867300E-13  6.9449187E+10   20.98820    
  6.2867300E-13  9.2092198E-13  9.8896306E+10   12.99151    
  9.2092198E-13  1.3490300E-12  1.2060684E+11   11.84928    
  1.3490300E-12  1.9761499E-12  1.8731441E+11   18.54152    
  1.9761499E-12  2.8947901E-12  2.5024178E+11   10.77965    
  2.8947901E-12  4.2404799E-12  3.2147600E+11   12.78780    
  4.2404799E-12  6.2117499E-12  3.7134424E+11   9.610127    
  6.2117499E-12  9.0993801E-12  4.0100151E+11   8.995146    
  9.0993801E-12  1.3329400E-11  3.9747020E+11   7.239268    
  1.3329400E-11  1.9525799E-11  3.4173406E+11   5.787164    
  1.9525799E-11  2.8602700E-11  2.5189543E+11   2.708463    
  2.8602700E-11  4.1899099E-11  1.7067975E+11   1.439758    
  4.1899099E-11  6.1376598E-11  1.0266743E+11   5.801651    
  6.1376598E-11  8.9908601E-11  5.8667688E+10   8.231710    
  8.9908601E-11  1.3170399E-10  2.7958831E+10   9.808001    
  1.3170399E-10  1.9292901E-10  1.3448353E+10   7.024901    
  1.9292901E-10  2.8261499E-10  7.0820296E+09   5.967496    
  2.8261499E-10  4.1399401E-10  4.2314463E+09   3.839334    
  4.1399401E-10  5.3157900E-10  3.0106250E+09   1.375969    
  5.3157900E-10  6.2506200E-10  2.3949371E+09   3.223827    
  6.2506200E-10  6.8256001E-10  2.1508221E+09  0.4905470    
  6.8256001E-10  8.3368101E-10  1.7598109E+09   2.031796    
  8.3368101E-10  8.7642499E-10  1.5603744E+09   1.800588    
  8.7642499E-10  1.1253500E-09  1.3482806E+09   2.605948    
  1.1253500E-09  1.4449800E-09  1.0272228E+09   2.275907    
  1.4449800E-09  1.8553900E-09  8.1498176E+08   1.140277    
  1.8553900E-09  2.3823701E-09  6.4304986E+08   1.141318    
  2.3823701E-09  3.0590199E-09  5.1044387E+08   1.330844    
  3.0590199E-09  3.9278598E-09  3.7944621E+08   1.261768    
  3.9278598E-09  5.0434799E-09  2.9644723E+08   2.033505    
  5.0434799E-09  6.4759500E-09  2.3439795E+08   1.189302    
  6.4759500E-09  8.3152898E-09  1.8099776E+08   1.981167    
  8.3152898E-09  1.0677000E-08  1.4296226E+08   2.747391    
  1.0677000E-08  1.3709600E-08  1.1256638E+08   2.606895    
  1.3709600E-08  1.7603501E-08  8.8248952E+07   1.007721    
  1.7603501E-08  2.2603301E-08  6.8193648E+07   1.764001    
  2.2603301E-08  2.9023200E-08  5.3751624E+07   1.186577    
  2.9023200E-08  3.7266499E-08  4.2350708E+07  0.8738246    
  3.7266499E-08  4.7851199E-08  3.3128264E+07   2.311224    
  4.7851199E-08  6.1442101E-08  2.5893762E+07   2.215818    
  6.1442101E-08  7.8893301E-08  2.0247164E+07   1.404519    
  7.8893301E-08  1.0130100E-07  1.5759985E+07   1.309086    
  1.0130100E-07  1.3007300E-07  1.2288964E+07   2.251165    
  1.3007300E-07  1.6701701E-07   9625887.       2.365700    
  1.6701701E-07  2.1445400E-07   7445232.       2.116388    
  2.1445400E-07  2.7536399E-07   5828368.       1.839800    
  2.7536399E-07  3.5357499E-07   4533476.       2.658936    
  3.5357499E-07  4.5399901E-07   3576691.       3.184215    
  4.5399901E-07  5.8294700E-07   2756088.       2.449552    
  5.8294700E-07  7.4851800E-07   2115259.       3.378772    
  7.4851800E-07  9.6111603E-07   1625464.       2.430674    
  9.6111603E-07  1.2341000E-06   1275462.       2.558976    
  1.2341000E-06  1.3638900E-06   1059606.       3.732867    
  1.3638900E-06  1.5073300E-06   964283.9       3.650434    
  1.5073300E-06  1.5846100E-06   884990.1       1.463092    
  1.5846100E-06  1.6658601E-06   841126.1       2.461629    
  1.6658601E-06  1.8410600E-06   789580.4       2.033833    
  1.8410600E-06  2.0346799E-06   697331.7       3.098304    
  2.0346799E-06  2.2486699E-06   625732.1       2.847717    
  2.2486699E-06  2.4851699E-06   565805.6       4.125171    
  2.4851699E-06  2.6125899E-06   530410.6       3.075793    
  2.6125899E-06  2.7465401E-06   513180.2       2.285916    
  2.7465401E-06  2.8634900E-06   461919.5       4.469850    
  2.8634900E-06  3.0353899E-06   451847.2       2.516463    
  3.0353899E-06  3.3546301E-06   417861.6       2.184944    
  3.3546301E-06  3.7074401E-06   376010.5       3.051551    
  3.7074401E-06  4.0973500E-06   341720.9       3.061484    
  4.0973500E-06  4.3074201E-06   313086.0       3.092460    
  4.3074201E-06  4.5282700E-06   286317.9       4.387685    
  4.5282700E-06  5.0045101E-06   271353.8       5.458116    
  5.0045101E-06  5.5308401E-06   279516.1       3.667281    
  5.5308401E-06  6.2672698E-06   164816.9       2.807629    
  6.2672698E-06  7.1017398E-06   186415.1       4.054069    
  7.1017398E-06  8.0473301E-06   162593.3       2.746184    
  8.0473301E-06  9.1188203E-06   143523.6       3.031210    
  9.1188203E-06  1.0333000E-05   125138.9       3.232793    
  1.0333000E-05  1.1708800E-05   108332.3       3.625256    
  1.1708800E-05  1.3267800E-05   94932.04       3.487581    
  1.3267800E-05  1.5034400E-05   80522.94       3.562879    
  1.5034400E-05  1.7036200E-05   72819.89       2.995155    
  1.7036200E-05  1.9304500E-05   61675.80       1.795904    
  1.9304500E-05  2.1334799E-05   55635.59       5.298954    
  2.1334799E-05  2.1874899E-05   50027.19       6.901041    
  2.1874899E-05  2.3578599E-05   49940.86       4.554273    
  2.3578599E-05  2.4175501E-05   45540.66       2.354528    
  2.4175501E-05  2.4787500E-05   44199.00       4.401917    
  2.4787500E-05  2.6058400E-05   40861.49       2.110172    
  2.6058400E-05  2.8087899E-05   44024.87       4.771376    
  2.8087899E-05  3.1827800E-05   47959.97       5.186555    
  3.1827800E-05  3.4306700E-05   24771.64       3.291370    
  3.4306700E-05  3.5175199E-05   10588.42       2.545349    
  3.5175199E-05  3.6065601E-05   10127.37       7.149344    
  3.6065601E-05  4.0867701E-05   14506.45       1.072760    
  4.0867701E-05  4.6309200E-05   19089.04       2.226902    
  4.6309200E-05  5.2475199E-05   17799.42       3.794002    
  5.2475199E-05  5.6562199E-05   16783.20       4.478523    
  5.6562199E-05  5.9462200E-05   14768.05       5.737822    
  5.9462200E-05  6.2510902E-05   14467.52       3.676845    
  6.2510902E-05  6.7379500E-05   14204.93       1.750771    
  6.7379500E-05  7.6350902E-05   14800.25       5.723886    
  7.6350902E-05  8.6516899E-05   9548.423       2.886963    
  8.6516899E-05  9.8036500E-05   4731.448       2.169807    
  9.8036500E-05  1.1109000E-04   6835.756       2.755923    
  1.1109000E-04  1.1678600E-04   7181.436       3.433704    
  1.1678600E-04  1.2277300E-04   4308.797       5.075428    
  1.2277300E-04  1.2906799E-04   7078.374       6.396314    
  1.2906799E-04  1.3568600E-04   7665.848       5.041014    
  1.3568600E-04  1.4264201E-04   4888.100       7.186087    
  1.4264201E-04  1.4995600E-04   3502.951       6.955224    
  1.4995600E-04  1.5764400E-04   3138.862       6.440943    
  1.5764400E-04  1.6163501E-04   2337.336       6.916206    
  1.6163501E-04  1.6572700E-04   3231.909       5.298452    
  1.6572700E-04  1.6992200E-04   3424.465       4.440539    
  1.6992200E-04  1.7422400E-04   3393.899       4.218709    
  1.7422400E-04  1.8315599E-04   3738.088       3.979185    
  1.8315599E-04  1.9254700E-04   3786.507       4.576933    
  1.9254700E-04  2.0241900E-04   3415.287       4.693870    
  2.0241900E-04  2.1279699E-04   2343.431       2.410973    
  2.1279699E-04  2.2370800E-04   2447.804       4.898949    
  2.2370800E-04  2.3517800E-04   2516.731       1.586559    
  2.3517800E-04  2.4723500E-04   2544.180       6.558223    
  2.4723500E-04  2.5991100E-04   2488.408       7.228482    
  2.5991100E-04  2.7323700E-04   2753.865       8.393644    
  2.7323700E-04  2.8015400E-04   2280.173       5.995571    
  2.8015400E-04  2.8724599E-04   1789.653       6.272218    
  2.8724599E-04  2.9451799E-04   1691.307      0.8490797    
  2.9451799E-04  3.0197401E-04   1928.323       5.632664    
  3.0197401E-04  3.0961799E-04   1676.420       7.429659    
  3.0961799E-04  3.1745600E-04   1481.445       8.563111    
  3.1745600E-04  3.3373301E-04   1759.393       6.460303    
  3.3373301E-04  3.5084400E-04   1717.325       7.561390    
  3.5084400E-04  3.6883200E-04   1449.311       6.781121    
  3.6883200E-04  3.8774201E-04   1373.438       5.575681    
  3.8774201E-04  4.0762199E-04   1370.828       4.479379    
  4.0762199E-04  4.2852099E-04   1052.689       4.617576    
  4.2852099E-04  4.5049199E-04   1012.946       4.984481    
  4.5049199E-04  4.7358900E-04   1056.738       5.520606    
  4.7358900E-04  4.9787102E-04   928.9683       6.181141    
  4.9787102E-04  5.1047403E-04   961.9727       10.74783    
  5.1047403E-04  5.2339700E-04   922.9908       6.409500    
  5.2339700E-04  5.3664698E-04   661.4630       3.221118    
  5.3664698E-04  5.5023201E-04   767.0620       5.151991    
  5.5023201E-04  5.7844300E-04   686.0320       6.740342    
  5.7844300E-04  6.0810102E-04   672.6426       9.242119    
  6.0810102E-04  6.3927902E-04   598.6739       4.155698    
  6.3927902E-04  6.7205500E-04   493.9162       2.459988    
  6.7205500E-04  7.0651202E-04   508.6912       7.958947    
  7.0651202E-04  7.4273598E-04   459.4615       4.346887    
  7.4273598E-04  7.8081700E-04   415.0889       10.65639    
  7.8081700E-04  8.2085002E-04   297.2299       4.819582    
  8.2085002E-04  8.6293602E-04   282.1108       2.487812    
  8.6293602E-04  9.0717903E-04   271.5632       4.790410    
  9.0717903E-04  9.5369201E-04   252.6295       6.577332    
  9.5369201E-04  9.6163998E-04   295.3903       2.212488    
  9.6163998E-04  9.7783399E-04   224.0404       4.078786    
  9.7783399E-04  1.0025901E-03   229.7939       7.802477    
  1.0025901E-03  1.0539900E-03   204.0822       4.801860    
  1.0539900E-03  1.1080300E-03   191.5183       5.303114    
  1.1080300E-03  1.1648400E-03   163.7644       7.716986    
  1.1648400E-03  1.1943300E-03   155.4371       6.030769    
  1.1943300E-03  1.2245600E-03   171.4683       5.915700    
  1.2245600E-03  1.2873500E-03   151.9501       4.590881    
  1.2873500E-03  1.3533500E-03   146.3085       7.634932    
  1.3533500E-03  1.4227401E-03   138.9003       7.406837    
  1.4227401E-03  1.4956900E-03   137.6363       8.848107    
  1.4956900E-03  1.5335500E-03   126.9415       5.247352    
  1.5335500E-03  1.5723699E-03   116.8049       2.999918    
  1.5723699E-03  1.6121800E-03   126.8194       6.628510    
  1.6121800E-03  1.6529900E-03   112.5585       2.642240    
  1.6529900E-03  1.7377400E-03   104.1589       2.387647    
  1.7377400E-03  1.8268300E-03   89.99588       3.111175    
  1.8268300E-03  1.8730800E-03   99.80855       6.683363    
  1.8730800E-03  1.9205000E-03   94.90317       2.371806    
  1.9205000E-03  1.9691200E-03   80.19525       5.983164    
  1.9691200E-03  2.0189700E-03   79.46689       3.584279    
  2.0189700E-03  2.1224800E-03   67.11534       4.371203    
  2.1224800E-03  2.2313001E-03   65.95994       6.372293    
  2.2313001E-03  2.2688799E-03   75.28337       2.755125    
  2.2688799E-03  2.3068599E-03   74.40165       13.92771    
  2.3068599E-03  2.3457000E-03   56.72781       8.119000    
  2.3457000E-03  2.3652499E-03   53.22670       22.39175    
  2.3652499E-03  2.3852000E-03   82.40403       2.936789    
  2.3852000E-03  2.4251300E-03   55.36076       3.187114    
  2.4251300E-03  2.4659701E-03   65.33875       15.17334    
  2.4659701E-03  2.5923999E-03   47.76028       8.004932    
  2.5923999E-03  2.7253199E-03   45.89473       4.479219    
  2.7253199E-03  2.8650500E-03   36.63816       4.428174    
  2.8650500E-03  3.0119400E-03   32.17814       2.827720    
  3.0119400E-03  3.0881900E-03   31.51988       2.975417    
  3.0881900E-03  3.1663701E-03   29.57871       1.552196    
  3.1663701E-03  3.2465300E-03   32.50671       3.292614    
  3.2465300E-03  3.3287101E-03   24.48872       4.655053    
  3.3287101E-03  3.4993801E-03   24.17613       5.506541    
  3.4993801E-03  3.6787901E-03   21.88447       4.131581    
  3.6787901E-03  3.8674099E-03   21.61653       9.926310    
  3.8674099E-03  4.0656999E-03   20.36926       6.799894    
  4.0656999E-03  4.2741499E-03   19.17457       3.640092    
  4.2741499E-03  4.4932901E-03   17.04742       2.096240    
  4.4932901E-03  4.6070400E-03   16.95458       13.24449    
  4.6070400E-03  4.7236700E-03   16.01044       6.923358    
  4.7236700E-03  4.8432499E-03   15.96087       5.559345    
  4.8432499E-03  4.9658502E-03   14.67012       5.748590    
  4.9658502E-03  5.2204598E-03   14.35752       6.451908    
  5.2204598E-03  5.4881200E-03   11.90375       3.085783    
  5.4881200E-03  5.7695000E-03   11.78106       1.011614    
  5.7695000E-03  5.9155500E-03   13.35615       5.501894    
  5.9155500E-03  6.0653100E-03   10.02812       11.50036    
  6.0653100E-03  6.2188501E-03   9.932827       12.12195    
  6.2188501E-03  6.3762800E-03   9.731314       3.699728    
  6.3762800E-03  6.5377001E-03   10.48625       14.75751    
  6.5377001E-03  6.5923799E-03   8.200749       23.98177    
  6.5923799E-03  6.6475999E-03   9.236439       10.49479    
  6.6475999E-03  6.7031998E-03   7.323980       13.08845    
  6.7031998E-03  6.8728901E-03   8.163791       4.296347    
  6.8728901E-03  7.0468802E-03   8.876095       7.087531    
  7.0468802E-03  7.2252699E-03   9.197556       3.868878    
  7.2252699E-03  7.4081798E-03   8.895655       12.33208    
  7.4081798E-03  7.5957198E-03   6.465550       6.573585    
  7.5957198E-03  7.7880099E-03   7.038109       9.039992    
  7.7880099E-03  7.9851598E-03   6.051806       24.32841    
  7.9851598E-03  8.1873098E-03   6.190856       23.93431    
  8.1873098E-03  8.3945701E-03   6.964458       6.637163    
  8.3945701E-03  8.6070802E-03   7.275670       7.280181    
  8.6070802E-03  8.8249696E-03   5.099066       3.919334    
  8.8249696E-03  9.0483697E-03   4.580204       16.49998    
  9.0483697E-03  9.2774397E-03   4.631828       18.82215    
  9.2774397E-03  9.5122904E-03   4.193141       10.91801    
  9.5122904E-03  9.7530996E-03   4.708557       20.89345    
  9.7530996E-03  9.9999998E-03   3.435840       10.76192    
  9.9999998E-03  1.0253200E-02   5.281289       10.07866    
  1.0253200E-02  1.0512700E-02   3.580460       1.094325    
  1.0512700E-02  1.0778800E-02   4.070375       6.765502    
  1.0778800E-02  1.1051700E-02   4.128745       13.91649    
  1.1051700E-02  1.1331500E-02   3.610826       13.30354    
  1.1331500E-02  1.1618300E-02   3.938831       10.86512    
  1.1618300E-02  1.1912500E-02   3.337930       5.597313    
  1.1912500E-02  1.2214000E-02   3.359000       25.98415    
  1.2214000E-02  1.2523200E-02   3.783983       11.25962    
  1.2523200E-02  1.2840200E-02   4.242152       10.62318    
  1.2840200E-02  1.3165300E-02   3.596783       13.06818    
  1.3165300E-02  1.3498600E-02   3.767579       4.993489    
  1.3498600E-02  1.3840300E-02   3.216004       5.468890    
  1.3840300E-02  1.4190700E-02   2.983658       13.26743    
  1.4190700E-02  1.4549900E-02   3.146108       11.30335    
  1.4549900E-02  1.4918300E-02   2.739531       5.329306    
  1.4918300E-02  1.5295900E-02   2.604952       16.33024    
  1.5295900E-02  1.5683100E-02   2.622810       12.43118    
  1.5683100E-02  1.6080100E-02   3.142723       2.783034    
  1.6080100E-02  1.6487200E-02   1.833200       12.30430    
  1.6487200E-02  1.6904600E-02   1.911054       4.866212    
  1.6904600E-02  1.7332500E-02   2.723873       10.20425    
  1.7332500E-02  1.7771300E-02   1.989647       8.831861    
  1.7771300E-02  1.8221200E-02   2.364597       11.49096    
  1.8221200E-02  1.8682500E-02   2.032736       4.263523    
  1.8682500E-02  1.9155400E-02   1.793845       13.50094    
  1.9155400E-02  1.9640300E-02   1.759496       10.68314    
  1.9640300E-02  2.0000000E-02   2.243626       15.01460    
