 # Detector n:            1   HeIInflux 
 # N. of energy intervals         260
  1.0000100E-14  2.0000000E-13  1.0711564E+10   29.85465    
  2.0000000E-13  2.9297300E-13  2.8907839E+10   23.58926    
  2.9297300E-13  4.2916701E-13  2.8923441E+10   22.30804    
  4.2916701E-13  6.2867300E-13  4.1991799E+10   22.59274    
  6.2867300E-13  9.2092198E-13  6.7457720E+10   5.677301    
  9.2092198E-13  1.3490300E-12  7.9042724E+10   5.190566    
  1.3490300E-12  1.9761499E-12  1.2792703E+11   12.98254    
  1.9761499E-12  2.8947901E-12  1.5953179E+11   4.454468    
  2.8947901E-12  4.2404799E-12  1.8182790E+11   6.000832    
  4.2404799E-12  6.2117499E-12  1.9735092E+11   2.308803    
  6.2117499E-12  9.0993801E-12  2.0326125E+11   1.851096    
  9.0993801E-12  1.3329400E-11  1.9535163E+11   2.807073    
  1.3329400E-11  1.9525799E-11  1.5085347E+11   2.473357    
  1.9525799E-11  2.8602700E-11  9.0107568E+10   1.540328    
  2.8602700E-11  4.1899099E-11  4.3456860E+10   1.658554    
  4.1899099E-11  6.1376598E-11  1.9041071E+10   1.620126    
  6.1376598E-11  8.9908601E-11  7.0318776E+09   4.048732    
  8.9908601E-11  1.3170399E-10  2.5416676E+09   5.511854    
  1.3170399E-10  1.9292901E-10  8.1744634E+08   9.526670    
  1.9292901E-10  2.8261499E-10  3.3147078E+08   1.577183    
  2.8261499E-10  4.1399401E-10  2.0542238E+08   2.943283    
  4.1399401E-10  5.3157900E-10  1.4527210E+08   3.734626    
  5.3157900E-10  6.2506200E-10  1.0813878E+08   6.291442    
  6.2506200E-10  6.8256001E-10  9.8066808E+07   7.192056    
  6.8256001E-10  8.3368101E-10  8.5184272E+07   1.054432    
  8.3368101E-10  8.7642499E-10  7.7642968E+07   5.788486    
  8.7642499E-10  1.1253500E-09  6.0157172E+07   5.863082    
  1.1253500E-09  1.4449800E-09  4.5296532E+07   3.202695    
  1.4449800E-09  1.8553900E-09  3.4653024E+07   4.535705    
  1.8553900E-09  2.3823701E-09  2.5077228E+07   2.150887    
  2.3823701E-09  3.0590199E-09  1.7793068E+07   1.153164    
  3.0590199E-09  3.9278598E-09  1.4640215E+07   4.299820    
  3.9278598E-09  5.0434799E-09  1.1240984E+07   4.992247    
  5.0434799E-09  6.4759500E-09   8083071.       1.277352    
  6.4759500E-09  8.3152898E-09   6129138.       5.249663    
  8.3152898E-09  1.0677000E-08   4667844.       1.749699    
  1.0677000E-08  1.3709600E-08   3635497.       1.684009    
  1.3709600E-08  1.7603501E-08   2756588.       5.090227    
  1.7603501E-08  2.2603301E-08   2068654.       3.470809    
  2.2603301E-08  2.9023200E-08   1663236.       3.295501    
  2.9023200E-08  3.7266499E-08   1198227.       2.891330    
  3.7266499E-08  4.7851199E-08   889803.6       5.302351    
  4.7851199E-08  6.1442101E-08   702072.9      0.9162208    
  6.1442101E-08  7.8893301E-08   521020.2       3.324562    
  7.8893301E-08  1.0130100E-07   369557.9       5.124440    
  1.0130100E-07  1.3007300E-07   286626.0       4.527579    
  1.3007300E-07  1.6701701E-07   220808.9       6.493397    
  1.6701701E-07  2.1445400E-07   166247.3       4.577409    
  2.1445400E-07  2.7536399E-07   119407.9       3.688399    
  2.7536399E-07  3.5357499E-07   86402.10       6.524970    
  3.5357499E-07  4.5399901E-07   67095.34       2.341157    
  4.5399901E-07  5.8294700E-07   48855.19       8.529959    
  5.8294700E-07  7.4851800E-07   33888.43       6.889127    
  7.4851800E-07  9.6111603E-07   25455.21       5.305588    
  9.6111603E-07  1.2341000E-06   20193.62       7.252465    
  1.2341000E-06  1.3638900E-06   14272.32       7.484531    
  1.3638900E-06  1.5073300E-06   12430.51       15.70821    
  1.5073300E-06  1.5846100E-06   10592.08       12.84134    
  1.5846100E-06  1.6658601E-06   11033.22       22.31726    
  1.6658601E-06  1.8410600E-06   9832.764       8.285826    
  1.8410600E-06  2.0346799E-06   9935.318       8.794332    
  2.0346799E-06  2.2486699E-06   9096.025       7.704686    
  2.2486699E-06  2.4851699E-06   7097.796       17.32748    
  2.4851699E-06  2.6125899E-06   7496.079       9.732650    
  2.6125899E-06  2.7465401E-06   5480.687       11.22080    
  2.7465401E-06  2.8634900E-06   4975.573       11.48871    
  2.8634900E-06  3.0353899E-06   5675.320       12.14203    
  3.0353899E-06  3.3546301E-06   4466.816       12.87918    
  3.3546301E-06  3.7074401E-06   5240.308       9.258571    
  3.7074401E-06  4.0973500E-06   3420.337       13.60916    
  4.0973500E-06  4.3074201E-06   3260.786       16.08425    
  4.3074201E-06  4.5282700E-06   2928.277       17.56158    
  4.5282700E-06  5.0045101E-06   2844.585       2.241406    
  5.0045101E-06  5.5308401E-06   3000.853       3.604698    
  5.5308401E-06  6.2672698E-06   1700.359       9.567308    
  6.2672698E-06  7.1017398E-06   1875.924       6.343879    
  7.1017398E-06  8.0473301E-06   1564.356       8.613232    
  8.0473301E-06  9.1188203E-06   1138.970       1.482569    
  9.1188203E-06  1.0333000E-05   988.9536       4.837010    
  1.0333000E-05  1.1708800E-05   1083.044       8.853831    
  1.1708800E-05  1.3267800E-05   721.2958       6.249626    
  1.3267800E-05  1.5034400E-05   666.0564       11.11180    
  1.5034400E-05  1.7036200E-05   570.3953       13.66799    
  1.7036200E-05  1.9304500E-05   484.2759       16.49418    
  1.9304500E-05  2.1334799E-05   403.1925       14.67888    
  2.1334799E-05  2.1874899E-05   183.5074       18.08627    
  2.1874899E-05  2.3578599E-05   321.4422       10.79930    
  2.3578599E-05  2.4175501E-05   361.2460       26.90309    
  2.4175501E-05  2.4787500E-05   200.1165       33.70542    
  2.4787500E-05  2.6058400E-05   299.1259       5.718363    
  2.6058400E-05  2.8087899E-05   274.0919       13.72967    
  2.8087899E-05  3.1827800E-05   240.7299       11.01527    
  3.1827800E-05  3.4306700E-05   130.6702       4.028140    
  3.4306700E-05  3.5175199E-05   32.88463       60.37683    
  3.5175199E-05  3.6065601E-05   32.10831       60.51804    
  3.6065601E-05  4.0867701E-05   82.61364       11.13010    
  4.0867701E-05  4.6309200E-05   100.2610       27.28173    
  4.6309200E-05  5.2475199E-05   104.9764       8.910935    
  5.2475199E-05  5.6562199E-05   74.30238       24.67945    
  5.6562199E-05  5.9462200E-05   65.35670       26.31739    
  5.9462200E-05  6.2510902E-05   61.59380       50.75648    
  6.2510902E-05  6.7379500E-05   95.43674       17.59087    
  6.7379500E-05  7.6350902E-05   44.61668       20.03243    
  7.6350902E-05  8.6516899E-05   30.96380       22.88872    
  8.6516899E-05  9.8036500E-05   16.58421       14.29590    
  9.8036500E-05  1.1109000E-04   25.54214       17.21520    
  1.1109000E-04  1.1678600E-04   40.39206       18.89476    
  1.1678600E-04  1.2277300E-04   14.74732       90.13603    
  1.2277300E-04  1.2906799E-04   22.05217       36.76232    
  1.2906799E-04  1.3568600E-04   29.14233       31.02636    
  1.3568600E-04  1.4264201E-04   29.14435       24.00427    
  1.4264201E-04  1.4995600E-04   7.045477       51.89917    
  1.4995600E-04  1.5764400E-04   8.267712       37.76617    
  1.5764400E-04  1.6163501E-04   14.03092       27.30975    
  1.6163501E-04  1.6572700E-04   14.39965       55.76815    
  1.6572700E-04  1.6992200E-04   10.86661       74.51391    
  1.6992200E-04  1.7422400E-04   22.95546       50.67914    
  1.7422400E-04  1.8315599E-04   8.118295       45.27547    
  1.8315599E-04  1.9254700E-04   9.901407       35.75181    
  1.9254700E-04  2.0241900E-04   2.127727       83.39384    
  2.0241900E-04  2.1279699E-04   9.854865       48.66128    
  2.1279699E-04  2.2370800E-04   6.135230       48.68762    
  2.2370800E-04  2.3517800E-04   5.434996       47.52606    
  2.3517800E-04  2.4723500E-04   4.394756       45.43568    
  2.4723500E-04  2.5991100E-04   2.738704       41.20487    
  2.5991100E-04  2.7323700E-04   3.426733       86.78722    
  2.7323700E-04  2.8015400E-04  9.8433793E-02   99.00000    
  2.8015400E-04  2.8724599E-04   2.923525       63.84428    
  2.8724599E-04  2.9451799E-04   5.717156       63.40456    
  2.9451799E-04  3.0197401E-04   4.896407       81.26852    
  3.0197401E-04  3.0961799E-04   1.406598       99.00000    
  3.0961799E-04  3.1745600E-04   3.847106       59.92720    
  3.1745600E-04  3.3373301E-04   2.611542       46.52560    
  3.3373301E-04  3.5084400E-04   2.209494       59.52657    
  3.5084400E-04  3.6883200E-04   3.532275       65.97137    
  3.6883200E-04  3.8774201E-04   2.921939       62.02285    
  3.8774201E-04  4.0762199E-04   1.249714       99.00000    
  4.0762199E-04  4.2852099E-04   2.044149       37.91996    
  4.2852099E-04  4.5049199E-04   1.457559       99.00000    
  4.5049199E-04  4.7358900E-04   3.740908       44.73501    
  4.7358900E-04  4.9787102E-04  0.1101245       99.00000    
  4.9787102E-04  5.1047403E-04   1.728075       59.27440    
  5.1047403E-04  5.2339700E-04  0.8824541       99.00000    
  5.2339700E-04  5.3664698E-04   1.171733       92.42346    
  5.3664698E-04  5.5023201E-04   2.181316       76.60583    
  5.5023201E-04  5.7844300E-04   3.175701       38.28103    
  5.7844300E-04  6.0810102E-04  0.5372526       61.86314    
  6.0810102E-04  6.3927902E-04   2.163548       31.69067    
  6.3927902E-04  6.7205500E-04   1.231245       59.56714    
  6.7205500E-04  7.0651202E-04  0.2785318       56.59788    
  7.0651202E-04  7.4273598E-04  9.4308145E-02   75.93813    
  7.4273598E-04  7.8081700E-04   1.913472       38.13621    
  7.8081700E-04  8.2085002E-04  0.8900827       98.96946    
  8.2085002E-04  8.6293602E-04   1.901155       34.79591    
  8.6293602E-04  9.0717903E-04   1.006681       47.12480    
  9.0717903E-04  9.5369201E-04  0.4846740       58.81394    
  9.5369201E-04  9.6163998E-04   0.000000       0.000000    
  9.6163998E-04  9.7783399E-04   0.000000       0.000000    
  9.7783399E-04  1.0025901E-03  6.6484496E-02   99.00000    
  1.0025901E-03  1.0539900E-03  0.3164145       61.64931    
  1.0539900E-03  1.1080300E-03  0.5127409       57.43445    
  1.1080300E-03  1.1648400E-03  0.2105696       99.00000    
  1.1648400E-03  1.1943300E-03   0.000000       0.000000    
  1.1943300E-03  1.2245600E-03  0.2747617       99.00000    
  1.2245600E-03  1.2873500E-03  0.3934413       37.06164    
  1.2873500E-03  1.3533500E-03  0.6173943       96.79661    
  1.3533500E-03  1.4227401E-03   0.000000       0.000000    
  1.4227401E-03  1.4956900E-03  0.2071957       95.48803    
  1.4956900E-03  1.5335500E-03   0.000000       0.000000    
  1.5335500E-03  1.5723699E-03  0.4757385       57.86616    
  1.5723699E-03  1.6121800E-03  2.8343515E-03   99.00000    
  1.6121800E-03  1.6529900E-03  0.5215406       58.17448    
  1.6529900E-03  1.7377400E-03  0.3105263       77.84448    
  1.7377400E-03  1.8268300E-03  0.3093708       57.83535    
  1.8268300E-03  1.8730800E-03   0.000000       0.000000    
  1.8730800E-03  1.9205000E-03   0.000000       0.000000    
  1.9205000E-03  1.9691200E-03   0.000000       0.000000    
  1.9691200E-03  2.0189700E-03   0.000000       0.000000    
  2.0189700E-03  2.1224800E-03  8.9146607E-02   99.00000    
  2.1224800E-03  2.2313001E-03  1.9133832E-02   99.00000    
  2.2313001E-03  2.2688799E-03  9.3022622E-02   99.00000    
  2.2688799E-03  2.3068599E-03  0.4420065       99.00000    
  2.3068599E-03  2.3457000E-03   0.000000       0.000000    
  2.3457000E-03  2.3652499E-03   0.000000       0.000000    
  2.3652499E-03  2.3852000E-03  8.1379842E-03   99.00000    
  2.3852000E-03  2.4251300E-03   0.000000       0.000000    
  2.4251300E-03  2.4659701E-03  0.1118713       99.00000    
  2.4659701E-03  2.5923999E-03  8.9451522E-02   99.00000    
  2.5923999E-03  2.7253199E-03  2.4338476E-02   99.00000    
  2.7253199E-03  2.8650500E-03  6.3250698E-02   99.00000    
  2.8650500E-03  3.0119400E-03   0.000000       0.000000    
  3.0119400E-03  3.0881900E-03   0.000000       0.000000    
  3.0881900E-03  3.1663701E-03   0.000000       0.000000    
  3.1663701E-03  3.2465300E-03   0.000000       0.000000    
  3.2465300E-03  3.3287101E-03   0.000000       0.000000    
  3.3287101E-03  3.4993801E-03  1.0660974E-02   99.00000    
  3.4993801E-03  3.6787901E-03  6.0679220E-02   99.00000    
  3.6787901E-03  3.8674099E-03  1.8397139E-02   99.00000    
  3.8674099E-03  4.0656999E-03  0.2213463       20.97352    
  4.0656999E-03  4.2741499E-03  4.9491130E-02   64.14102    
  4.2741499E-03  4.4932901E-03  6.7074031E-02   99.00000    
  4.4932901E-03  4.6070400E-03  0.1029936       42.90610    
  4.6070400E-03  4.7236700E-03  4.6155360E-02   99.00000    
  4.7236700E-03  4.8432499E-03   0.000000       0.000000    
  4.8432499E-03  4.9658502E-03   0.000000       0.000000    
  4.9658502E-03  5.2204598E-03  5.1156178E-02   99.00000    
  5.2204598E-03  5.4881200E-03  2.1378061E-02   99.00000    
  5.4881200E-03  5.7695000E-03  0.1737096       53.90046    
  5.7695000E-03  5.9155500E-03   0.000000       0.000000    
  5.9155500E-03  6.0653100E-03   0.000000       0.000000    
  6.0653100E-03  6.2188501E-03  1.8015508E-02   99.00000    
  6.2188501E-03  6.3762800E-03   0.000000       0.000000    
  6.3762800E-03  6.5377001E-03  5.0108723E-02   99.00000    
  6.5377001E-03  6.5923799E-03   0.000000       0.000000    
  6.5923799E-03  6.6475999E-03   0.000000       0.000000    
  6.6475999E-03  6.7031998E-03   0.000000       0.000000    
  6.7031998E-03  6.8728901E-03  4.3963514E-02   99.00000    
  6.8728901E-03  7.0468802E-03   0.000000       0.000000    
  7.0468802E-03  7.2252699E-03   0.000000       0.000000    
  7.2252699E-03  7.4081798E-03  3.6816243E-02   99.00000    
  7.4081798E-03  7.5957198E-03  2.2450184E-02   99.00000    
  7.5957198E-03  7.7880099E-03   0.000000       0.000000    
  7.7880099E-03  7.9851598E-03   0.000000       0.000000    
  7.9851598E-03  8.1873098E-03  0.1091060       99.00000    
  8.1873098E-03  8.3945701E-03   0.000000       0.000000    
  8.3945701E-03  8.6070802E-03  7.6292522E-02   99.00000    
  8.6070802E-03  8.8249696E-03   0.000000       0.000000    
  8.8249696E-03  9.0483697E-03  1.0027578E-02   99.00000    
  9.0483697E-03  9.2774397E-03  5.5958565E-02   99.00000    
  9.2774397E-03  9.5122904E-03   0.000000       0.000000    
  9.5122904E-03  9.7530996E-03   0.000000       0.000000    
  9.7530996E-03  9.9999998E-03  1.4461630E-02   99.00000    
  9.9999998E-03  1.0253200E-02   0.000000       0.000000    
  1.0253200E-02  1.0512700E-02   0.000000       0.000000    
  1.0512700E-02  1.0778800E-02  1.0507370E-02   99.00000    
  1.0778800E-02  1.1051700E-02   0.000000       0.000000    
  1.1051700E-02  1.1331500E-02  6.0931724E-02   99.00000    
  1.1331500E-02  1.1618300E-02   0.000000       0.000000    
  1.1618300E-02  1.1912500E-02   0.000000       0.000000    
  1.1912500E-02  1.2214000E-02  4.4150587E-02   99.00000    
  1.2214000E-02  1.2523200E-02  6.0808841E-02   83.30280    
  1.2523200E-02  1.2840200E-02   0.000000       0.000000    
  1.2840200E-02  1.3165300E-02  2.1642994E-02   59.17937    
  1.3165300E-02  1.3498600E-02   0.000000       0.000000    
  1.3498600E-02  1.3840300E-02   0.000000       0.000000    
  1.3840300E-02  1.4190700E-02  2.0210247E-02   99.00000    
  1.4190700E-02  1.4549900E-02  0.1199330       58.27087    
  1.4549900E-02  1.4918300E-02   0.000000       0.000000    
  1.4918300E-02  1.5295900E-02   0.000000       0.000000    
  1.5295900E-02  1.5683100E-02  8.1652077E-03   99.00000    
  1.5683100E-02  1.6080100E-02  3.6241315E-02   82.72869    
  1.6080100E-02  1.6487200E-02   0.000000       0.000000    
  1.6487200E-02  1.6904600E-02  4.3860711E-02   99.00000    
  1.6904600E-02  1.7332500E-02   0.000000       0.000000    
  1.7332500E-02  1.7771300E-02   0.000000       0.000000    
  1.7771300E-02  1.8221200E-02   0.000000       0.000000    
  1.8221200E-02  1.8682500E-02   0.000000       0.000000    
  1.8682500E-02  1.9155400E-02  3.7463911E-02   99.00000    
  1.9155400E-02  1.9640300E-02   0.000000       0.000000    
  1.9640300E-02  2.0000000E-02  4.0236894E-02   99.00000    
