 # Detector n:            1   HeIIcoll  
 # N. of energy intervals         260
  1.0000100E-14  2.0000000E-13  7.8144343E+09   85.49842    
  2.0000000E-13  2.9297300E-13  2.7775562E+10   56.74783    
  2.9297300E-13  4.2916701E-13  9.1867521E+10   47.85132    
  4.2916701E-13  6.2867300E-13  6.5752359E+10   19.29760    
  6.2867300E-13  9.2092198E-13  9.6867779E+10   14.07850    
  9.2092198E-13  1.3490300E-12  9.8904678E+10   14.97300    
  1.3490300E-12  1.9761499E-12  2.0158626E+11   6.250031    
  1.9761499E-12  2.8947901E-12  1.8137627E+11   9.284670    
  2.8947901E-12  4.2404799E-12  2.3203575E+11   7.177253    
  4.2404799E-12  6.2117499E-12  2.8010653E+11   1.481591    
  6.2117499E-12  9.0993801E-12  2.7918107E+11   3.655324    
  9.0993801E-12  1.3329400E-11  2.5035126E+11   2.691887    
  1.3329400E-11  1.9525799E-11  1.9812018E+11   3.966240    
  1.9525799E-11  2.8602700E-11  1.2753718E+11   2.726589    
  2.8602700E-11  4.1899099E-11  5.6706740E+10   6.304707    
  4.1899099E-11  6.1376598E-11  2.6560066E+10   5.106384    
  6.1376598E-11  8.9908601E-11  9.1364383E+09   2.222446    
  8.9908601E-11  1.3170399E-10  3.0630589E+09   6.327163    
  1.3170399E-10  1.9292901E-10  1.4073846E+09   3.961058    
  1.9292901E-10  2.8261499E-10  4.8733146E+08   6.095807    
  2.8261499E-10  4.1399401E-10  2.9492262E+08   5.266807    
  4.1399401E-10  5.3157900E-10  2.0369235E+08   4.749826    
  5.3157900E-10  6.2506200E-10  1.6203570E+08   7.170259    
  6.2506200E-10  6.8256001E-10  1.5455432E+08   8.276225    
  6.8256001E-10  8.3368101E-10  1.1066832E+08   5.373806    
  8.3368101E-10  8.7642499E-10  9.6404840E+07   18.71559    
  8.7642499E-10  1.1253500E-09  8.1309408E+07   1.665242    
  1.1253500E-09  1.4449800E-09  5.8550688E+07   8.369734    
  1.4449800E-09  1.8553900E-09  4.7487164E+07   3.861221    
  1.8553900E-09  2.3823701E-09  3.4425888E+07   3.523446    
  2.3823701E-09  3.0590199E-09  2.7885960E+07   3.205612    
  3.0590199E-09  3.9278598E-09  2.1908610E+07   7.942082    
  3.9278598E-09  5.0434799E-09  1.6687561E+07   4.968478    
  5.0434799E-09  6.4759500E-09  1.1336186E+07   11.06229    
  6.4759500E-09  8.3152898E-09  1.0085248E+07   6.788958    
  8.3152898E-09  1.0677000E-08   6224783.       5.302632    
  1.0677000E-08  1.3709600E-08   4894154.       5.167195    
  1.3709600E-08  1.7603501E-08   4135447.       6.603355    
  1.7603501E-08  2.2603301E-08   2912795.       2.482682    
  2.2603301E-08  2.9023200E-08   2126782.       8.005038    
  2.9023200E-08  3.7266499E-08   1758334.       4.886953    
  3.7266499E-08  4.7851199E-08   1270189.       9.278047    
  4.7851199E-08  6.1442101E-08   932584.0       9.038962    
  6.1442101E-08  7.8893301E-08   750385.5       4.891417    
  7.8893301E-08  1.0130100E-07   509410.4       6.673690    
  1.0130100E-07  1.3007300E-07   455152.8       5.946819    
  1.3007300E-07  1.6701701E-07   339314.2       7.432477    
  1.6701701E-07  2.1445400E-07   245070.1       10.66339    
  2.1445400E-07  2.7536399E-07   187417.3       4.631800    
  2.7536399E-07  3.5357499E-07   128051.3       6.082978    
  3.5357499E-07  4.5399901E-07   107401.2       9.862151    
  4.5399901E-07  5.8294700E-07   79842.20       6.607168    
  5.8294700E-07  7.4851800E-07   55837.84       4.103050    
  7.4851800E-07  9.6111603E-07   38216.12       14.49370    
  9.6111603E-07  1.2341000E-06   27197.24       3.268021    
  1.2341000E-06  1.3638900E-06   23205.80       8.804508    
  1.3638900E-06  1.5073300E-06   22462.48       10.34990    
  1.5073300E-06  1.5846100E-06   20846.70       14.85065    
  1.5846100E-06  1.6658601E-06   19828.11       20.54702    
  1.6658601E-06  1.8410600E-06   15592.43       25.93845    
  1.8410600E-06  2.0346799E-06   15194.58       11.33560    
  2.0346799E-06  2.2486699E-06   13093.71       11.54700    
  2.2486699E-06  2.4851699E-06   11551.44       16.94378    
  2.4851699E-06  2.6125899E-06   9895.639       11.11111    
  2.6125899E-06  2.7465401E-06   9936.195       21.70056    
  2.7465401E-06  2.8634900E-06   7786.789       19.35855    
  2.8634900E-06  3.0353899E-06   7742.817       5.263158    
  3.0353899E-06  3.3546301E-06   8996.923       14.01113    
  3.3546301E-06  3.7074401E-06   5162.642       19.35855    
  3.7074401E-06  4.0973500E-06   4312.138       6.804138    
  4.0973500E-06  4.3074201E-06   5335.972       27.00309    
  4.3074201E-06  4.5282700E-06   4123.914       31.71620    
  4.5282700E-06  5.0045101E-06   4707.599       16.92508    
  5.0045101E-06  5.5308401E-06   4259.702       13.50154    
  5.5308401E-06  6.2672698E-06   2949.371       8.118102    
  6.2672698E-06  7.1017398E-06   2351.063       19.34295    
  7.1017398E-06  8.0473301E-06   2815.925       12.52882    
  8.0473301E-06  9.1188203E-06   1700.392       14.72965    
  9.1188203E-06  1.0333000E-05   1789.228       9.677421    
  1.0333000E-05  1.1708800E-05   1884.738       11.98571    
  1.1708800E-05  1.3267800E-05   1078.929       32.63150    
  1.3267800E-05  1.5034400E-05   793.4822       8.164966    
  1.5034400E-05  1.7036200E-05   980.4190       15.43033    
  1.7036200E-05  1.9304500E-05   587.1600       5.263158    
  1.9304500E-05  2.1334799E-05   759.5970       11.73631    
  2.1334799E-05  2.1874899E-05   389.3698       63.82847    
  2.1874899E-05  2.3578599E-05   411.4440       25.81989    
  2.3578599E-05  2.4175501E-05   0.000000       0.000000    
  2.4175501E-05  2.4787500E-05   572.6789       20.00000    
  2.4787500E-05  2.6058400E-05   882.4610       27.00309    
  2.6058400E-05  2.8087899E-05   483.5202       18.44278    
  2.8087899E-05  3.1827800E-05   562.2302       31.03164    
  3.1827800E-05  3.4306700E-05   282.7296       62.18253    
  3.4306700E-05  3.5175199E-05   80.69546       99.00000    
  3.5175199E-05  3.6065601E-05   0.000000       0.000000    
  3.6065601E-05  4.0867701E-05   145.9349       25.81989    
  4.0867701E-05  4.6309200E-05   257.4892       11.54701    
  4.6309200E-05  5.2475199E-05   170.3429       44.05384    
  5.2475199E-05  5.6562199E-05   171.2549       47.60952    
  5.6562199E-05  5.9462200E-05   168.8971       27.35506    
  5.9462200E-05  6.2510902E-05   114.7188       60.00000    
  6.2510902E-05  6.7379500E-05   14.35843       99.00000    
  6.7379500E-05  7.6350902E-05   62.26914       40.82483    
  7.6350902E-05  8.6516899E-05   68.57467       25.81989    
  8.6516899E-05  9.8036500E-05   30.18207       20.00000    
  9.8036500E-05  1.1109000E-04   21.22977       40.82483    
  1.1109000E-04  1.1678600E-04   60.58473       50.33223    
  1.1678600E-04  1.2277300E-04   11.50098       99.00000    
  1.2277300E-04  1.2906799E-04   32.73425       63.82847    
  1.2906799E-04  1.3568600E-04   31.05638       63.82847    
  1.3568600E-04  1.4264201E-04   29.46758       33.33333    
  1.4264201E-04  1.4995600E-04   9.315290       99.00000    
  1.4995600E-04  1.5764400E-04   8.826388       99.00000    
  1.5764400E-04  1.6163501E-04   16.93515       99.00000    
  1.6163501E-04  1.6572700E-04   0.000000       0.000000    
  1.6572700E-04  1.6992200E-04   16.02301       99.00000    
  1.6992200E-04  1.7422400E-04   0.000000       0.000000    
  1.7422400E-04  1.8315599E-04   14.94173       57.73503    
  1.8315599E-04  1.9254700E-04   28.25021       70.71068    
  1.9254700E-04  2.0241900E-04   20.02543       63.82847    
  2.0241900E-04  2.1279699E-04   12.58319       57.73503    
  2.1279699E-04  2.2370800E-04   11.84213       57.73503    
  2.2370800E-04  2.3517800E-04   5.570635       99.00000    
  2.3517800E-04  2.4723500E-04   36.67293       27.35506    
  2.4723500E-04  2.5991100E-04   9.832110       57.73503    
  2.5991100E-04  2.7323700E-04   18.37663       70.71068    
  2.7323700E-04  2.8015400E-04   8.730185       99.00000    
  2.8015400E-04  2.8724599E-04   8.435439       99.00000    
  2.8724599E-04  2.9451799E-04   0.000000       0.000000    
  2.9451799E-04  3.0197401E-04   0.000000       0.000000    
  3.0197401E-04  3.0961799E-04   7.580568       99.00000    
  3.0961799E-04  3.1745600E-04   0.000000       0.000000    
  3.1745600E-04  3.3373301E-04   10.31365       99.00000    
  3.3373301E-04  3.5084400E-04   12.71269       40.82483    
  3.5084400E-04  3.6883200E-04   5.838924       57.73503    
  3.6883200E-04  3.8774201E-04   16.00663       43.03315    
  3.8774201E-04  4.0762199E-04   9.737453       57.73503    
  4.0762199E-04  4.2852099E-04   2.198604       99.00000    
  4.2852099E-04  4.5049199E-04   0.000000       0.000000    
  4.5049199E-04  4.7358900E-04   5.308064       63.82847    
  4.7358900E-04  4.9787102E-04   3.138768       57.73503    
  4.9787102E-04  5.1047403E-04   0.000000       0.000000    
  5.1047403E-04  5.2339700E-04   2.671760       99.00000    
  5.2339700E-04  5.3664698E-04   7.487810       33.33333    
  5.3664698E-04  5.5023201E-04   2.333518       99.00000    
  5.5023201E-04  5.7844300E-04   2.087370       99.00000    
  5.7844300E-04  6.0810102E-04   5.379575       43.03315    
  6.0810102E-04  6.3927902E-04  0.7636361       99.00000    
  6.3927902E-04  6.7205500E-04  0.6440176       99.00000    
  6.7205500E-04  7.0651202E-04   3.234523       43.03315    
  7.0651202E-04  7.4273598E-04   1.793741       40.82483    
  7.4273598E-04  7.8081700E-04  0.3717575       99.00000    
  7.8081700E-04  8.2085002E-04   1.231755       40.82483    
  8.2085002E-04  8.6293602E-04   1.024228       0.000000    
  8.6293602E-04  9.0717903E-04   1.933284       21.27616    
  9.0717903E-04  9.5369201E-04   1.097401       43.03315    
  9.5369201E-04  9.6163998E-04   2.024320       57.73503    
  9.6163998E-04  9.7783399E-04  0.4861824       99.00000    
  9.7783399E-04  1.0025901E-03  0.9240271       33.33333    
  1.0025901E-03  1.0539900E-03  0.8506480       33.33333    
  1.0539900E-03  1.1080300E-03  0.2599911       57.73503    
  1.1080300E-03  1.1648400E-03  0.7354999       33.33334    
  1.1648400E-03  1.1943300E-03  0.7152023       63.82847    
  1.1943300E-03  1.2245600E-03  0.4716088       57.73503    
  1.2245600E-03  1.2873500E-03  0.5849830       20.00000    
  1.2873500E-03  1.3533500E-03   1.055663       49.27457    
  1.3533500E-03  1.4227401E-03  0.7126604       57.73503    
  1.4227401E-03  1.4956900E-03  0.3629647       63.82847    
  1.4956900E-03  1.5335500E-03  0.7377266       99.00000    
  1.5335500E-03  1.5723699E-03   1.242903       38.29708    
  1.5723699E-03  1.6121800E-03   1.256011       75.71878    
  1.6121800E-03  1.6529900E-03  0.2538555       99.00000    
  1.6529900E-03  1.7377400E-03  0.2574940       57.73503    
  1.7377400E-03  1.8268300E-03  0.2619357       57.73503    
  1.8268300E-03  1.8730800E-03  0.2647710       99.00000    
  1.8730800E-03  1.9205000E-03  0.5326825       57.73503    
  1.9205000E-03  1.9691200E-03  0.8029920       33.33333    
  1.9691200E-03  2.0189700E-03  0.5374707       57.73503    
  2.0189700E-03  2.1224800E-03  0.1348971       99.00000    
  2.1224800E-03  2.2313001E-03  0.1351802       99.00000    
  2.2313001E-03  2.2688799E-03   0.000000       0.000000    
  2.2688799E-03  2.3068599E-03  0.4065740       99.00000    
  2.3068599E-03  2.3457000E-03  0.4036794       99.00000    
  2.3457000E-03  2.3652499E-03   0.000000       0.000000    
  2.3652499E-03  2.3852000E-03   0.000000       0.000000    
  2.3852000E-03  2.4251300E-03   0.000000       0.000000    
  2.4251300E-03  2.4659701E-03   0.000000       0.000000    
  2.4659701E-03  2.5923999E-03  0.2661037       57.73503    
  2.5923999E-03  2.7253199E-03  0.1314501       99.00000    
  2.7253199E-03  2.8650500E-03  0.3884707       63.82847    
  2.8650500E-03  3.0119400E-03  0.1272129       99.00000    
  3.0119400E-03  3.0881900E-03   0.000000       0.000000    
  3.0881900E-03  3.1663701E-03   0.000000       0.000000    
  3.1663701E-03  3.2465300E-03  0.4905318       57.73503    
  3.2465300E-03  3.3287101E-03  0.4849294       57.73503    
  3.3287101E-03  3.4993801E-03   0.000000       0.000000    
  3.4993801E-03  3.6787901E-03  0.2320926       99.00000    
  3.6787901E-03  3.8674099E-03  0.1130174       99.00000    
  3.8674099E-03  4.0656999E-03  0.1099975       99.00000    
  4.0656999E-03  4.2741499E-03  0.1070245       99.00000    
  4.2741499E-03  4.4932901E-03  0.2082468       57.73503    
  4.4932901E-03  4.6070400E-03  0.6121327       33.33333    
  4.6070400E-03  4.7236700E-03   0.000000       0.000000    
  4.7236700E-03  4.8432499E-03   0.000000       0.000000    
  4.8432499E-03  4.9658502E-03  0.1960324       99.00000    
  4.9658502E-03  5.2204598E-03  9.6114002E-02   99.00000    
  5.2204598E-03  5.4881200E-03  9.3727060E-02   99.00000    
  5.4881200E-03  5.7695000E-03  9.1487855E-02   99.00000    
  5.7695000E-03  5.9155500E-03   0.000000       0.000000    
  5.9155500E-03  6.0653100E-03   0.000000       0.000000    
  6.0653100E-03  6.2188501E-03   0.000000       0.000000    
  6.2188501E-03  6.3762800E-03  0.3479798       57.73503    
  6.3762800E-03  6.5377001E-03   0.000000       0.000000    
  6.5377001E-03  6.5923799E-03   0.000000       0.000000    
  6.5923799E-03  6.6475999E-03   0.000000       0.000000    
  6.6475999E-03  6.7031998E-03   0.000000       0.000000    
  6.7031998E-03  6.8728901E-03   0.000000       0.000000    
  6.8728901E-03  7.0468802E-03   0.000000       0.000000    
  7.0468802E-03  7.2252699E-03   0.000000       0.000000    
  7.2252699E-03  7.4081798E-03   0.000000       0.000000    
  7.4081798E-03  7.5957198E-03  0.1627477       99.00000    
  7.5957198E-03  7.7880099E-03   0.000000       0.000000    
  7.7880099E-03  7.9851598E-03  0.1600989       99.00000    
  7.9851598E-03  8.1873098E-03   0.000000       0.000000    
  8.1873098E-03  8.3945701E-03  0.1576614       99.00000    
  8.3945701E-03  8.6070802E-03   0.000000       0.000000    
  8.6070802E-03  8.8249696E-03   0.000000       0.000000    
  8.8249696E-03  9.0483697E-03   0.000000       0.000000    
  9.0483697E-03  9.2774397E-03   0.000000       0.000000    
  9.2774397E-03  9.5122904E-03   0.000000       0.000000    
  9.5122904E-03  9.7530996E-03   0.000000       0.000000    
  9.7530996E-03  9.9999998E-03  0.1507792       99.00000    
  9.9999998E-03  1.0253200E-02  0.1499567       99.00000    
  1.0253200E-02  1.0512700E-02   0.000000       0.000000    
  1.0512700E-02  1.0778800E-02   0.000000       0.000000    
  1.0778800E-02  1.1051700E-02  0.1478638       99.00000    
  1.1051700E-02  1.1331500E-02   0.000000       0.000000    
  1.1331500E-02  1.1618300E-02  0.1467213       99.00000    
  1.1618300E-02  1.1912500E-02   0.000000       0.000000    
  1.1912500E-02  1.2214000E-02   0.000000       0.000000    
  1.2214000E-02  1.2523200E-02   0.000000       0.000000    
  1.2523200E-02  1.2840200E-02  0.2895470       57.73503    
  1.2840200E-02  1.3165300E-02   0.000000       0.000000    
  1.3165300E-02  1.3498600E-02  0.1440075       99.00000    
  1.3498600E-02  1.3840300E-02  0.2873946       57.73503    
  1.3840300E-02  1.4190700E-02  0.1433732       99.00000    
  1.4190700E-02  1.4549900E-02   0.000000       0.000000    
  1.4549900E-02  1.4918300E-02   0.000000       0.000000    
  1.4918300E-02  1.5295900E-02   0.000000       0.000000    
  1.5295900E-02  1.5683100E-02   0.000000       0.000000    
  1.5683100E-02  1.6080100E-02  0.1422033       99.00000    
  1.6080100E-02  1.6487200E-02   0.000000       0.000000    
  1.6487200E-02  1.6904600E-02   0.000000       0.000000    
  1.6904600E-02  1.7332500E-02   0.000000       0.000000    
  1.7332500E-02  1.7771300E-02   0.000000       0.000000    
  1.7771300E-02  1.8221200E-02   0.000000       0.000000    
  1.8221200E-02  1.8682500E-02   0.000000       0.000000    
  1.8682500E-02  1.9155400E-02   0.000000       0.000000    
  1.9155400E-02  1.9640300E-02  0.2805524       57.73503    
  1.9640300E-02  2.0000000E-02   0.000000       0.000000    
