 # Detector n:  1  HeIInflux 
 # N. of energy intervals 260
  1.0000100E-14  2.0000000E-13  2.9668069E+11   7.755491    
  2.0000000E-13  2.9297300E-13  6.3284766E+11   8.533593    
  2.9297300E-13  4.2916701E-13  8.3671548E+11   6.984320    
  4.2916701E-13  6.2867300E-13  1.2437248E+12   3.792264    
  6.2867300E-13  9.2092198E-13  1.6455669E+12   1.922857    
  9.2092198E-13  1.3490300E-12  2.3714692E+12   2.308009    
  1.3490300E-12  1.9761499E-12  2.8384276E+12   1.875447    
  1.9761499E-12  2.8947901E-12  3.5802330E+12   1.205632    
  2.8947901E-12  4.2404799E-12  4.3035567E+12  0.8933252    
  4.2404799E-12  6.2117499E-12  4.5979020E+12  0.7190506    
  6.2117499E-12  9.0993801E-12  4.6235622E+12  0.8717785    
  9.0993801E-12  1.3329400E-11  3.9829750E+12  0.7667475    
  1.3329400E-11  1.9525799E-11  2.9212308E+12  0.4385915    
  1.9525799E-11  2.8602700E-11  1.6999403E+12  0.4416222    
  2.8602700E-11  4.1899099E-11  7.7022777E+11  0.5599932    
  4.1899099E-11  6.1376598E-11  3.0549652E+11  0.7843710    
  6.1376598E-11  8.9908601E-11  1.3278172E+11   1.258641    
  8.9908601E-11  1.3170399E-10  6.7614200E+10  0.7638766    
  1.3170399E-10  1.9292901E-10  4.0575529E+10  0.8255078    
  1.9292901E-10  2.8261499E-10  2.5801148E+10  0.5731485    
  2.8261499E-10  4.1399401E-10  1.6868168E+10  0.4533000    
  4.1399401E-10  5.3157900E-10  1.2487118E+10  0.4625509    
  5.3157900E-10  6.2506200E-10  1.0181065E+10  0.5696465    
  6.2506200E-10  6.8256001E-10  8.8898324E+09  0.7464913    
  6.8256001E-10  8.3368101E-10  7.7827569E+09  0.8318341    
  8.3368101E-10  8.7642499E-10  6.8625546E+09  0.9709911    
  8.7642499E-10  1.1253500E-09  5.8301384E+09  0.3581106    
  1.1253500E-09  1.4449800E-09  4.5386916E+09  0.4955592    
  1.4449800E-09  1.8553900E-09  3.5213202E+09  0.4529704    
  1.8553900E-09  2.3823701E-09  2.7526300E+09  0.6201569    
  2.3823701E-09  3.0590199E-09  2.1720922E+09  0.4171729    
  3.0590199E-09  3.9278598E-09  1.6628516E+09  0.5027852    
  3.9278598E-09  5.0434799E-09  1.2882075E+09  0.3812455    
  5.0434799E-09  6.4759500E-09  1.0261077E+09  0.5680448    
  6.4759500E-09  8.3152898E-09  7.9052006E+08  0.3445093    
  8.3152898E-09  1.0677000E-08  6.2389395E+08  0.6223397    
  1.0677000E-08  1.3709600E-08  4.8583718E+08  0.5068601    
  1.3709600E-08  1.7603501E-08  3.8199763E+08  0.5320454    
  1.7603501E-08  2.2603301E-08  2.9632102E+08  0.5334563    
  2.2603301E-08  2.9023200E-08  2.3175859E+08  0.3866136    
  2.9023200E-08  3.7266499E-08  1.8223776E+08  0.5644999    
  3.7266499E-08  4.7851199E-08  1.4224965E+08  0.4785354    
  4.7851199E-08  6.1442101E-08  1.1016483E+08  0.4254819    
  6.1442101E-08  7.8893301E-08  8.5884936E+07  0.5785855    
  7.8893301E-08  1.0130100E-07  6.6841124E+07  0.4094307    
  1.0130100E-07  1.3007300E-07  5.2231692E+07  0.4898441    
  1.3007300E-07  1.6701701E-07  4.0655012E+07  0.4903031    
  1.6701701E-07  2.1445400E-07  3.1653292E+07  0.4457760    
  2.1445400E-07  2.7536399E-07  2.4495720E+07  0.4724162    
  2.7536399E-07  3.5357499E-07  1.8917174E+07  0.5407830    
  3.5357499E-07  4.5399901E-07  1.4575021E+07  0.5183658    
  4.5399901E-07  5.8294700E-07  1.1358750E+07  0.3890504    
  5.8294700E-07  7.4851800E-07   8791854.      0.5393988    
  7.4851800E-07  9.6111603E-07   6772185.      0.5776542    
  9.6111603E-07  1.2341000E-06   5251598.      0.4298260    
  1.2341000E-06  1.3638900E-06   4362498.      0.7684252    
  1.3638900E-06  1.5073300E-06   3939798.      0.7535670    
  1.5073300E-06  1.5846100E-06   3677579.       1.341565    
  1.5846100E-06  1.6658601E-06   3489374.      0.9594694    
  1.6658601E-06  1.8410600E-06   3158231.      0.8838342    
  1.8410600E-06  2.0346799E-06   2851283.      0.7476302    
  2.0346799E-06  2.2486699E-06   2567060.      0.7633461    
  2.2486699E-06  2.4851699E-06   2356715.      0.7385023    
  2.4851699E-06  2.6125899E-06   2082289.      0.9195103    
  2.6125899E-06  2.7465401E-06   2016691.       1.215800    
  2.7465401E-06  2.8634900E-06   1928516.       1.244330    
  2.8634900E-06  3.0353899E-06   1839613.       1.059244    
  3.0353899E-06  3.3546301E-06   1667902.      0.7856650    
  3.3546301E-06  3.7074401E-06   1508764.      0.7339937    
  3.7074401E-06  4.0973500E-06   1375420.      0.8196209    
  4.0973500E-06  4.3074201E-06   1250020.      0.9312817    
  4.3074201E-06  4.5282700E-06   1176723.       1.516284    
  4.5282700E-06  5.0045101E-06   1100867.      0.6511922    
  5.0045101E-06  5.5308401E-06   1055538.      0.5980649    
  5.5308401E-06  6.2672698E-06   791225.6      0.7488983    
  6.2672698E-06  7.1017398E-06   760087.3      0.5493883    
  7.1017398E-06  8.0473301E-06   671390.9      0.7766224    
  8.0473301E-06  9.1188203E-06   587550.0      0.6319969    
  9.1188203E-06  1.0333000E-05   509910.4      0.5770316    
  1.0333000E-05  1.1708800E-05   448729.2      0.8510258    
  1.1708800E-05  1.3267800E-05   388694.9      0.5626309    
  1.3267800E-05  1.5034400E-05   336291.4      0.9166487    
  1.5034400E-05  1.7036200E-05   290270.7      0.8477219    
  1.7036200E-05  1.9304500E-05   249795.9      0.6042956    
  1.9304500E-05  2.1334799E-05   220540.9       1.014925    
  2.1334799E-05  2.1874899E-05   205108.4       2.077979    
  2.1874899E-05  2.3578599E-05   193291.7      0.7671518    
  2.3578599E-05  2.4175501E-05   179628.7      0.8795331    
  2.4175501E-05  2.4787500E-05   178127.3       1.259930    
  2.4787500E-05  2.6058400E-05   171419.7       1.335907    
  2.6058400E-05  2.8087899E-05   166029.9      0.8697128    
  2.8087899E-05  3.1827800E-05   175795.3      0.6802414    
  3.1827800E-05  3.4306700E-05   122975.2      0.7739416    
  3.4306700E-05  3.5175199E-05   69015.59       2.357763    
  3.5175199E-05  3.6065601E-05   64919.01       1.913654    
  3.6065601E-05  4.0867701E-05   78771.49      0.8439881    
  4.0867701E-05  4.6309200E-05   83744.17      0.9759524    
  4.6309200E-05  5.2475199E-05   75142.41      0.7300243    
  5.2475199E-05  5.6562199E-05   69316.86       1.036885    
  5.6562199E-05  5.9462200E-05   62860.77       1.286237    
  5.9462200E-05  6.2510902E-05   60561.50      0.5472546    
  6.2510902E-05  6.7379500E-05   56613.14       1.049112    
  6.7379500E-05  7.6350902E-05   54570.02      0.8136693    
  7.6350902E-05  8.6516899E-05   41812.53      0.6666588    
  8.6516899E-05  9.8036500E-05   25541.99       1.294583    
  9.8036500E-05  1.1109000E-04   29264.71      0.9823298    
  1.1109000E-04  1.1678600E-04   28192.21       1.149157    
  1.1678600E-04  1.2277300E-04   20758.54       2.058772    
  1.2277300E-04  1.2906799E-04   27954.27      0.9836231    
  1.2906799E-04  1.3568600E-04   27950.76      0.9523693    
  1.3568600E-04  1.4264201E-04   20637.52       1.235411    
  1.4264201E-04  1.4995600E-04   16905.99       1.602618    
  1.4995600E-04  1.5764400E-04   15178.61       1.318058    
  1.5764400E-04  1.6163501E-04   12712.70       2.595734    
  1.6163501E-04  1.6572700E-04   15000.23       2.027707    
  1.6572700E-04  1.6992200E-04   14671.71       2.027367    
  1.6992200E-04  1.7422400E-04   14814.45       2.259777    
  1.7422400E-04  1.8315599E-04   15442.13       1.312431    
  1.8315599E-04  1.9254700E-04   15267.33       1.620215    
  1.9254700E-04  2.0241900E-04   13690.80       1.004287    
  2.0241900E-04  2.1279699E-04   11141.11       1.729837    
  2.1279699E-04  2.2370800E-04   11212.11       1.911079    
  2.2370800E-04  2.3517800E-04   10872.18       1.284194    
  2.3517800E-04  2.4723500E-04   10420.34       1.404009    
  2.4723500E-04  2.5991100E-04   10425.94       1.571927    
  2.5991100E-04  2.7323700E-04   10446.46       2.004252    
  2.7323700E-04  2.8015400E-04   9334.025       2.024926    
  2.8015400E-04  2.8724599E-04   7829.302       2.806930    
  2.8724599E-04  2.9451799E-04   7564.861       2.608685    
  2.9451799E-04  3.0197401E-04   7601.518       1.986717    
  3.0197401E-04  3.0961799E-04   7358.526       2.759447    
  3.0961799E-04  3.1745600E-04   6888.203       1.871210    
  3.1745600E-04  3.3373301E-04   7057.970       1.889511    
  3.3373301E-04  3.5084400E-04   7022.282       1.321717    
  3.5084400E-04  3.6883200E-04   5796.541       1.650321    
  3.6883200E-04  3.8774201E-04   5594.363       1.185149    
  3.8774201E-04  4.0762199E-04   5390.911       2.022020    
  4.0762199E-04  4.2852099E-04   4268.511       1.681383    
  4.2852099E-04  4.5049199E-04   3842.267       2.033109    
  4.5049199E-04  4.7358900E-04   3877.579       1.744523    
  4.7358900E-04  4.9787102E-04   3802.694       1.188047    
  4.9787102E-04  5.1047403E-04   3705.976       3.160390    
  5.1047403E-04  5.2339700E-04   3488.314       2.316131    
  5.2339700E-04  5.3664698E-04   2677.631       2.932909    
  5.3664698E-04  5.5023201E-04   2853.994       2.082247    
  5.5023201E-04  5.7844300E-04   2612.494       1.509288    
  5.7844300E-04  6.0810102E-04   2554.394       1.819990    
  6.0810102E-04  6.3927902E-04   2122.065       1.509947    
  6.3927902E-04  6.7205500E-04   1785.313       1.770848    
  6.7205500E-04  7.0651202E-04   1801.755       1.449750    
  7.0651202E-04  7.4273598E-04   1557.135       1.586952    
  7.4273598E-04  7.8081700E-04   1324.137       1.715752    
  7.8081700E-04  8.2085002E-04   1012.511       1.800938    
  8.2085002E-04  8.6293602E-04   935.0298       2.121289    
  8.6293602E-04  9.0717903E-04   835.2336       2.748566    
  9.0717903E-04  9.5369201E-04   753.4470       1.688589    
  9.5369201E-04  9.6163998E-04   667.0042       5.143973    
  9.6163998E-04  9.7783399E-04   673.0474       3.914032    
  9.7783399E-04  1.0025901E-03   633.0494       2.214617    
  1.0025901E-03  1.0539900E-03   577.2856       1.557344    
  1.0539900E-03  1.1080300E-03   569.3520       2.465863    
  1.1080300E-03  1.1648400E-03   488.3859       2.454225    
  1.1648400E-03  1.1943300E-03   452.2263       2.534964    
  1.1943300E-03  1.2245600E-03   482.1348       3.558710    
  1.2245600E-03  1.2873500E-03   464.8412       2.233589    
  1.2873500E-03  1.3533500E-03   436.1715       2.148241    
  1.3533500E-03  1.4227401E-03   442.4851       1.762840    
  1.4227401E-03  1.4956900E-03   430.8615       2.593149    
  1.4956900E-03  1.5335500E-03   414.4719       3.009714    
  1.5335500E-03  1.5723699E-03   393.4882       3.489764    
  1.5723699E-03  1.6121800E-03   383.0850       1.949221    
  1.6121800E-03  1.6529900E-03   398.8096       2.131885    
  1.6529900E-03  1.7377400E-03   363.9582       2.167774    
  1.7377400E-03  1.8268300E-03   340.7060       2.411972    
  1.8268300E-03  1.8730800E-03   345.3911       3.558717    
  1.8730800E-03  1.9205000E-03   313.5935       4.323518    
  1.9205000E-03  1.9691200E-03   333.0639       3.044267    
  1.9691200E-03  2.0189700E-03   309.1985       4.052226    
  2.0189700E-03  2.1224800E-03   284.5848       2.866844    
  2.1224800E-03  2.2313001E-03   267.9243       2.512427    
  2.2313001E-03  2.2688799E-03   256.5909       5.009204    
  2.2688799E-03  2.3068599E-03   238.8805       4.835586    
  2.3068599E-03  2.3457000E-03   236.1110       5.661890    
  2.3457000E-03  2.3652499E-03   220.8904       6.766913    
  2.3652499E-03  2.3852000E-03   249.4734       7.195958    
  2.3852000E-03  2.4251300E-03   240.4690       5.810697    
  2.4251300E-03  2.4659701E-03   234.6029       4.348504    
  2.4659701E-03  2.5923999E-03   191.1477       2.011669    
  2.5923999E-03  2.7253199E-03   194.4126       3.133072    
  2.7253199E-03  2.8650500E-03   162.0126       2.526048    
  2.8650500E-03  3.0119400E-03   145.1886       3.572665    
  3.0119400E-03  3.0881900E-03   134.4576       4.753235    
  3.0881900E-03  3.1663701E-03   128.9913       3.849172    
  3.1663701E-03  3.2465300E-03   134.2443       3.415686    
  3.2465300E-03  3.3287101E-03   108.8371       6.324224    
  3.3287101E-03  3.4993801E-03   111.6684       3.284259    
  3.4993801E-03  3.6787901E-03   108.2651       3.623044    
  3.6787901E-03  3.8674099E-03   99.73929       3.891920    
  3.8674099E-03  4.0656999E-03   97.98148       3.216249    
  4.0656999E-03  4.2741499E-03   86.38823       3.630231    
  4.2741499E-03  4.4932901E-03   80.44664       2.977595    
  4.4932901E-03  4.6070400E-03   77.33073       5.316339    
  4.6070400E-03  4.7236700E-03   72.39817       7.299550    
  4.7236700E-03  4.8432499E-03   64.35387       5.249656    
  4.8432499E-03  4.9658502E-03   73.04146       4.848302    
  4.9658502E-03  5.2204598E-03   68.35088       3.846862    
  5.2204598E-03  5.4881200E-03   64.09955       4.035814    
  5.4881200E-03  5.7695000E-03   57.89534       4.743619    
  5.7695000E-03  5.9155500E-03   56.34555       5.012865    
  5.9155500E-03  6.0653100E-03   51.46168       5.927092    
  6.0653100E-03  6.2188501E-03   50.20760       5.112320    
  6.2188501E-03  6.3762800E-03   55.19721       7.750207    
  6.3762800E-03  6.5377001E-03   47.17337       4.635585    
  6.5377001E-03  6.5923799E-03   43.30409       8.308325    
  6.5923799E-03  6.6475999E-03   39.11680       7.991467    
  6.6475999E-03  6.7031998E-03   47.66449       6.391854    
  6.7031998E-03  6.8728901E-03   42.61829       6.186389    
  6.8728901E-03  7.0468802E-03   41.25367       6.232149    
  7.0468802E-03  7.2252699E-03   40.73701       5.702175    
  7.2252699E-03  7.4081798E-03   38.95414       7.403986    
  7.4081798E-03  7.5957198E-03   37.34377       7.050486    
  7.5957198E-03  7.7880099E-03   35.38001       6.014327    
  7.7880099E-03  7.9851598E-03   34.95671       5.943121    
  7.9851598E-03  8.1873098E-03   33.90136       7.292248    
  8.1873098E-03  8.3945701E-03   29.94614       5.990838    
  8.3945701E-03  8.6070802E-03   31.91634       7.272459    
  8.6070802E-03  8.8249696E-03   29.92719       5.488373    
  8.8249696E-03  9.0483697E-03   28.04905       5.183799    
  9.0483697E-03  9.2774397E-03   31.30346       7.059267    
  9.2774397E-03  9.5122904E-03   24.61590       7.127955    
  9.5122904E-03  9.7530996E-03   25.03563       5.919050    
  9.7530996E-03  9.9999998E-03   23.26596       5.861804    
  9.9999998E-03  1.0253200E-02   26.55161       4.762201    
  1.0253200E-02  1.0512700E-02   21.72655       5.386562    
  1.0512700E-02  1.0778800E-02   25.73860       5.059333    
  1.0778800E-02  1.1051700E-02   24.43739       7.827748    
  1.1051700E-02  1.1331500E-02   24.01841       5.248174    
  1.1331500E-02  1.1618300E-02   21.90013       8.553359    
  1.1618300E-02  1.1912500E-02   22.26214       5.657173    
  1.1912500E-02  1.2214000E-02   21.39316       5.976210    
  1.2214000E-02  1.2523200E-02   19.39320       6.805735    
  1.2523200E-02  1.2840200E-02   19.43215       5.912915    
  1.2840200E-02  1.3165300E-02   17.84870       8.252624    
  1.3165300E-02  1.3498600E-02   17.28073       7.399883    
  1.3498600E-02  1.3840300E-02   15.52464       8.936076    
  1.3840300E-02  1.4190700E-02   18.75582       6.576906    
  1.4190700E-02  1.4549900E-02   17.76206       7.718030    
  1.4549900E-02  1.4918300E-02   16.24188       5.850634    
  1.4918300E-02  1.5295900E-02   15.36677       8.616071    
  1.5295900E-02  1.5683100E-02   14.42320       6.214670    
  1.5683100E-02  1.6080100E-02   11.25109       6.614757    
  1.6080100E-02  1.6487200E-02   15.20759       8.242396    
  1.6487200E-02  1.6904600E-02   14.71730       6.469039    
  1.6904600E-02  1.7332500E-02   13.46518       5.895191    
  1.7332500E-02  1.7771300E-02   11.56175       8.430923    
  1.7771300E-02  1.8221200E-02   12.45315       8.769256    
  1.8221200E-02  1.8682500E-02   12.26018       6.541893    
  1.8682500E-02  1.9155400E-02   12.76757       8.491617    
  1.9155400E-02  1.9640300E-02   11.29679       5.677085    
  1.9640300E-02  2.0000000E-02   10.01414       6.482437    
