 # Detector n:  1  HeIInflux 
 # N. of energy intervals 260
  1.0000100E-14  2.0000000E-13  2.2242656E+10   20.11558    
  2.0000000E-13  2.9297300E-13  3.1451396E+10   17.65904    
  2.9297300E-13  4.2916701E-13  6.9556249E+10   18.24417    
  4.2916701E-13  6.2867300E-13  1.0166764E+11   9.880927    
  6.2867300E-13  9.2092198E-13  1.4579401E+11   8.872869    
  9.2092198E-13  1.3490300E-12  1.7646459E+11   4.087557    
  1.3490300E-12  1.9761499E-12  2.4601092E+11   3.040100    
  1.9761499E-12  2.8947901E-12  3.0981338E+11   3.344607    
  2.8947901E-12  4.2404799E-12  3.8737075E+11   1.182523    
  4.2404799E-12  6.2117499E-12  4.4075765E+11   1.332272    
  6.2117499E-12  9.0993801E-12  4.5450304E+11   1.080597    
  9.0993801E-12  1.3329400E-11  4.1033787E+11  0.8032076    
  1.3329400E-11  1.9525799E-11  3.2889838E+11   1.231087    
  1.9525799E-11  2.8602700E-11  1.9628243E+11   1.074991    
  2.8602700E-11  4.1899099E-11  9.3593747E+10   1.103665    
  4.1899099E-11  6.1376598E-11  3.9588184E+10   1.341805    
  6.1376598E-11  8.9908601E-11  1.8154762E+10   1.893772    
  8.9908601E-11  1.3170399E-10  9.5416566E+09   1.242344    
  1.3170399E-10  1.9292901E-10  5.5826698E+09   1.325067    
  1.9292901E-10  2.8261499E-10  3.5490337E+09  0.9891707    
  2.8261499E-10  4.1399401E-10  2.3603983E+09  0.9220662    
  4.1399401E-10  5.3157900E-10  1.7314149E+09   1.132390    
  5.3157900E-10  6.2506200E-10  1.3977635E+09   1.009761    
  6.2506200E-10  6.8256001E-10  1.2688609E+09   1.494736    
  6.8256001E-10  8.3368101E-10  1.0901979E+09  0.9098147    
  8.3368101E-10  8.7642499E-10  9.3135814E+08   2.577457    
  8.7642499E-10  1.1253500E-09  8.0889664E+08   1.225866    
  1.1253500E-09  1.4449800E-09  6.3155904E+08   1.072853    
  1.4449800E-09  1.8553900E-09  4.9871539E+08   1.104057    
  1.8553900E-09  2.3823701E-09  3.8379427E+08  0.9309731    
  2.3823701E-09  3.0590199E-09  3.0027306E+08  0.8251457    
  3.0590199E-09  3.9278598E-09  2.3217614E+08  0.9053077    
  3.9278598E-09  5.0434799E-09  1.8277570E+08   1.054685    
  5.0434799E-09  6.4759500E-09  1.4525330E+08   1.030779    
  6.4759500E-09  8.3152898E-09  1.1135080E+08  0.8590712    
  8.3152898E-09  1.0677000E-08  8.7357688E+07  0.9852869    
  1.0677000E-08  1.3709600E-08  6.8892304E+07  0.6500033    
  1.3709600E-08  1.7603501E-08  5.3991772E+07  0.8830848    
  1.7603501E-08  2.2603301E-08  4.1901580E+07  0.9060031    
  2.2603301E-08  2.9023200E-08  3.2608704E+07  0.7506111    
  2.9023200E-08  3.7266499E-08  2.5526196E+07  0.8301335    
  3.7266499E-08  4.7851199E-08  1.9873334E+07   1.029899    
  4.7851199E-08  6.1442101E-08  1.5727617E+07  0.9400386    
  6.1442101E-08  7.8893301E-08  1.2292895E+07  0.8798481    
  7.8893301E-08  1.0130100E-07   9524042.      0.6352238    
  1.0130100E-07  1.3007300E-07   7239898.       1.002508    
  1.3007300E-07  1.6701701E-07   5640644.       1.024554    
  1.6701701E-07  2.1445400E-07   4437158.      0.6444862    
  2.1445400E-07  2.7536399E-07   3472524.      0.6621082    
  2.7536399E-07  3.5357499E-07   2652403.       1.018851    
  3.5357499E-07  4.5399901E-07   2103956.       1.176272    
  4.5399901E-07  5.8294700E-07   1594608.      0.9021301    
  5.8294700E-07  7.4851800E-07   1246529.      0.6653650    
  7.4851800E-07  9.6111603E-07   960623.8      0.6404972    
  9.6111603E-07  1.2341000E-06   740090.1      0.9255017    
  1.2341000E-06  1.3638900E-06   609146.1       1.744021    
  1.3638900E-06  1.5073300E-06   559610.2       1.656524    
  1.5073300E-06  1.5846100E-06   509798.1       1.767937    
  1.5846100E-06  1.6658601E-06   484188.8       1.323641    
  1.6658601E-06  1.8410600E-06   443958.6       1.070906    
  1.8410600E-06  2.0346799E-06   398547.8       1.570579    
  2.0346799E-06  2.2486699E-06   374911.3       1.230931    
  2.2486699E-06  2.4851699E-06   319420.2       1.269193    
  2.4851699E-06  2.6125899E-06   296185.4       2.312750    
  2.6125899E-06  2.7465401E-06   289019.8       2.382694    
  2.7465401E-06  2.8634900E-06   270853.1       2.234789    
  2.8634900E-06  3.0353899E-06   260880.7       2.155975    
  3.0353899E-06  3.3546301E-06   240941.1       1.392455    
  3.3546301E-06  3.7074401E-06   218533.4      0.9073614    
  3.7074401E-06  4.0973500E-06   195176.0       1.610016    
  4.0973500E-06  4.3074201E-06   175888.8       1.942674    
  4.3074201E-06  4.5282700E-06   167480.8       1.688499    
  4.5282700E-06  5.0045101E-06   154611.8       1.182268    
  5.0045101E-06  5.5308401E-06   152133.1       1.564012    
  5.5308401E-06  6.2672698E-06   104804.8       1.310270    
  6.2672698E-06  7.1017398E-06   106322.1       1.481611    
  7.1017398E-06  8.0473301E-06   93784.43       1.259294    
  8.0473301E-06  9.1188203E-06   80337.31       1.328075    
  9.1188203E-06  1.0333000E-05   71149.84       1.140292    
  1.0333000E-05  1.1708800E-05   60231.58       1.032177    
  1.1708800E-05  1.3267800E-05   52933.01       1.139157    
  1.3267800E-05  1.5034400E-05   45584.64      0.9388698    
  1.5034400E-05  1.7036200E-05   39350.66       1.186203    
  1.7036200E-05  1.9304500E-05   34350.40       1.674834    
  1.9304500E-05  2.1334799E-05   29795.84       1.330529    
  2.1334799E-05  2.1874899E-05   28100.02       2.970410    
  2.1874899E-05  2.3578599E-05   26872.80       1.899042    
  2.3578599E-05  2.4175501E-05   23382.87       2.376917    
  2.4175501E-05  2.4787500E-05   24334.43       3.734390    
  2.4787500E-05  2.6058400E-05   23844.97       1.403278    
  2.6058400E-05  2.8087899E-05   23075.29       2.129086    
  2.8087899E-05  3.1827800E-05   24143.08      0.9456578    
  3.1827800E-05  3.4306700E-05   16502.16       1.601090    
  3.4306700E-05  3.5175199E-05   8680.807       6.445666    
  3.5175199E-05  3.6065601E-05   6761.120       4.671380    
  3.6065601E-05  4.0867701E-05   10023.20       1.443815    
  4.0867701E-05  4.6309200E-05   11148.24      0.9852515    
  4.6309200E-05  5.2475199E-05   10042.32       1.746197    
  5.2475199E-05  5.6562199E-05   9288.019       1.973221    
  5.6562199E-05  5.9462200E-05   8303.856       3.401878    
  5.9462200E-05  6.2510902E-05   7930.813       2.321813    
  6.2510902E-05  6.7379500E-05   7828.690       1.513828    
  6.7379500E-05  7.6350902E-05   7445.593       1.444482    
  7.6350902E-05  8.6516899E-05   5522.477       1.288873    
  8.6516899E-05  9.8036500E-05   3104.871       1.547920    
  9.8036500E-05  1.1109000E-04   3931.915       1.704629    
  1.1109000E-04  1.1678600E-04   3694.983       2.829704    
  1.1678600E-04  1.2277300E-04   2631.210       2.598116    
  1.2277300E-04  1.2906799E-04   3893.668       1.785467    
  1.2906799E-04  1.3568600E-04   3791.209       2.683360    
  1.3568600E-04  1.4264201E-04   2867.887       2.303529    
  1.4264201E-04  1.4995600E-04   2129.037       3.252562    
  1.4995600E-04  1.5764400E-04   1924.150       2.918123    
  1.5764400E-04  1.6163501E-04   1513.681       3.894820    
  1.6163501E-04  1.6572700E-04   1911.427       3.437343    
  1.6572700E-04  1.6992200E-04   1883.616       4.759341    
  1.6992200E-04  1.7422400E-04   1798.737       5.539988    
  1.7422400E-04  1.8315599E-04   2043.366       3.322265    
  1.8315599E-04  1.9254700E-04   2017.463       1.779134    
  1.9254700E-04  2.0241900E-04   1741.175       2.520060    
  2.0241900E-04  2.1279699E-04   1375.826       3.068821    
  2.1279699E-04  2.2370800E-04   1370.301       3.057011    
  2.2370800E-04  2.3517800E-04   1368.874       3.399759    
  2.3517800E-04  2.4723500E-04   1326.711       2.858005    
  2.4723500E-04  2.5991100E-04   1371.206       3.410224    
  2.5991100E-04  2.7323700E-04   1364.164       3.516858    
  2.7323700E-04  2.8015400E-04   1272.368       4.767302    
  2.8015400E-04  2.8724599E-04   1001.209       4.465912    
  2.8724599E-04  2.9451799E-04   942.6805       4.577819    
  2.9451799E-04  3.0197401E-04   926.9634       6.216254    
  3.0197401E-04  3.0961799E-04   994.3104       4.605129    
  3.0961799E-04  3.1745600E-04   879.9839       4.029860    
  3.1745600E-04  3.3373301E-04   935.2668       2.668202    
  3.3373301E-04  3.5084400E-04   903.3933       3.389822    
  3.5084400E-04  3.6883200E-04   763.5324       3.196720    
  3.6883200E-04  3.8774201E-04   696.4958       3.018846    
  3.8774201E-04  4.0762199E-04   733.9408       2.669209    
  4.0762199E-04  4.2852099E-04   566.3639       3.376419    
  4.2852099E-04  4.5049199E-04   523.1910       3.414623    
  4.5049199E-04  4.7358900E-04   511.4815       3.338384    
  4.7358900E-04  4.9787102E-04   523.4871       2.365890    
  4.9787102E-04  5.1047403E-04   499.8262       4.560824    
  5.1047403E-04  5.2339700E-04   512.6933       5.772780    
  5.2339700E-04  5.3664698E-04   418.6263       3.656468    
  5.3664698E-04  5.5023201E-04   404.1797       5.216357    
  5.5023201E-04  5.7844300E-04   395.7184       3.456567    
  5.7844300E-04  6.0810102E-04   364.1305       2.367375    
  6.0810102E-04  6.3927902E-04   340.2965       2.693422    
  6.3927902E-04  6.7205500E-04   281.9472       3.448921    
  6.7205500E-04  7.0651202E-04   300.0007       2.192728    
  7.0651202E-04  7.4273598E-04   258.4467       3.609688    
  7.4273598E-04  7.8081700E-04   220.7848       3.525543    
  7.8081700E-04  8.2085002E-04   165.6944       3.447051    
  8.2085002E-04  8.6293602E-04   158.2476       4.190810    
  8.6293602E-04  9.0717903E-04   143.7086       4.503732    
  9.0717903E-04  9.5369201E-04   135.0990       4.637882    
  9.5369201E-04  9.6163998E-04   133.6310       8.718301    
  9.6163998E-04  9.7783399E-04   105.1324       7.123815    
  9.7783399E-04  1.0025901E-03   120.1889       5.692501    
  1.0025901E-03  1.0539900E-03   104.3730       3.611115    
  1.0539900E-03  1.1080300E-03   110.8254       2.445788    
  1.1080300E-03  1.1648400E-03   87.46186       3.898465    
  1.1648400E-03  1.1943300E-03   82.46026       5.153541    
  1.1943300E-03  1.2245600E-03   97.28342       4.937707    
  1.2245600E-03  1.2873500E-03   86.96748       4.919864    
  1.2873500E-03  1.3533500E-03   82.49026       5.275214    
  1.3533500E-03  1.4227401E-03   73.83907       5.639861    
  1.4227401E-03  1.4956900E-03   74.05241       4.803521    
  1.4956900E-03  1.5335500E-03   64.26176       6.811536    
  1.5335500E-03  1.5723699E-03   71.71803       5.745044    
  1.5723699E-03  1.6121800E-03   64.54473       7.595031    
  1.6121800E-03  1.6529900E-03   69.03596       6.218772    
  1.6529900E-03  1.7377400E-03   66.05072       5.003222    
  1.7377400E-03  1.8268300E-03   59.33253       3.253959    
  1.8268300E-03  1.8730800E-03   52.16663       6.703660    
  1.8730800E-03  1.9205000E-03   52.83289       8.070547    
  1.9205000E-03  1.9691200E-03   41.13294       8.645814    
  1.9691200E-03  2.0189700E-03   50.34911       5.554808    
  2.0189700E-03  2.1224800E-03   46.70527       5.012669    
  2.1224800E-03  2.2313001E-03   44.45524       6.482169    
  2.2313001E-03  2.2688799E-03   41.78380       4.857633    
  2.2688799E-03  2.3068599E-03   34.20493       7.433726    
  2.3068599E-03  2.3457000E-03   32.96012       9.690100    
  2.3457000E-03  2.3652499E-03   31.59225       11.21749    
  2.3652499E-03  2.3852000E-03   34.41036       16.10351    
  2.3852000E-03  2.4251300E-03   32.53746       7.895361    
  2.4251300E-03  2.4659701E-03   36.20741       5.496403    
  2.4659701E-03  2.5923999E-03   31.49519       6.707390    
  2.5923999E-03  2.7253199E-03   26.73848       4.644412    
  2.7253199E-03  2.8650500E-03   22.54850       7.124449    
  2.8650500E-03  3.0119400E-03   19.99436       5.182330    
  3.0119400E-03  3.0881900E-03   21.65899       4.675593    
  3.0881900E-03  3.1663701E-03   16.85744       10.28559    
  3.1663701E-03  3.2465300E-03   18.31021       8.050191    
  3.2465300E-03  3.3287101E-03   17.23697       10.14259    
  3.3287101E-03  3.4993801E-03   16.28677       8.450525    
  3.4993801E-03  3.6787901E-03   15.76947       7.017631    
  3.6787901E-03  3.8674099E-03   14.13336       5.515615    
  3.8674099E-03  4.0656999E-03   13.36519       8.864843    
  4.0656999E-03  4.2741499E-03   13.49064       6.725085    
  4.2741499E-03  4.4932901E-03   11.16717       6.932199    
  4.4932901E-03  4.6070400E-03   8.942562       12.30918    
  4.6070400E-03  4.7236700E-03   11.20014       7.935161    
  4.7236700E-03  4.8432499E-03   11.08563       5.688766    
  4.8432499E-03  4.9658502E-03   10.47520       10.90007    
  4.9658502E-03  5.2204598E-03   9.281863       10.66558    
  5.2204598E-03  5.4881200E-03   9.380371       8.179509    
  5.4881200E-03  5.7695000E-03   8.123462       6.734042    
  5.7695000E-03  5.9155500E-03   7.765577       11.93710    
  5.9155500E-03  6.0653100E-03   9.184277       11.78717    
  6.0653100E-03  6.2188501E-03   7.176721       12.90108    
  6.2188501E-03  6.3762800E-03   8.263262       11.26387    
  6.3762800E-03  6.5377001E-03   6.121110       11.89748    
  6.5377001E-03  6.5923799E-03   5.848550       15.10584    
  6.5923799E-03  6.6475999E-03   7.470419       15.82519    
  6.6475999E-03  6.7031998E-03   8.355385       17.24300    
  6.7031998E-03  6.8728901E-03   6.067036       14.47219    
  6.8728901E-03  7.0468802E-03   5.298802       10.79471    
  7.0468802E-03  7.2252699E-03   5.921044       11.70816    
  7.2252699E-03  7.4081798E-03   5.679002       13.39205    
  7.4081798E-03  7.5957198E-03   5.171600       12.91522    
  7.5957198E-03  7.7880099E-03   5.135223       8.603625    
  7.7880099E-03  7.9851598E-03   4.868146       9.245023    
  7.9851598E-03  8.1873098E-03   3.798712       14.46531    
  8.1873098E-03  8.3945701E-03   4.413377       12.63179    
  8.3945701E-03  8.6070802E-03   4.087281       12.97770    
  8.6070802E-03  8.8249696E-03   4.064258       6.956187    
  8.8249696E-03  9.0483697E-03   4.476465       14.79343    
  9.0483697E-03  9.2774397E-03   3.731000       14.60603    
  9.2774397E-03  9.5122904E-03   4.599115       11.10030    
  9.5122904E-03  9.7530996E-03   4.032898       11.42911    
  9.7530996E-03  9.9999998E-03   3.452889       11.45572    
  9.9999998E-03  1.0253200E-02   3.186760       9.952118    
  1.0253200E-02  1.0512700E-02   3.177049       16.28304    
  1.0512700E-02  1.0778800E-02   3.478202       11.81458    
  1.0778800E-02  1.1051700E-02   3.307379       8.832659    
  1.1051700E-02  1.1331500E-02   3.278155       10.57713    
  1.1331500E-02  1.1618300E-02   1.954483       10.85443    
  1.1618300E-02  1.1912500E-02   2.476191       19.01476    
  1.1912500E-02  1.2214000E-02   2.512842       10.39201    
  1.2214000E-02  1.2523200E-02   2.342950       11.68799    
  1.2523200E-02  1.2840200E-02   2.486988       9.158418    
  1.2840200E-02  1.3165300E-02   3.147250       12.60137    
  1.3165300E-02  1.3498600E-02   2.809103       13.02197    
  1.3498600E-02  1.3840300E-02   1.901713       14.01252    
  1.3840300E-02  1.4190700E-02   2.045517       9.713132    
  1.4190700E-02  1.4549900E-02   2.295878       13.72324    
  1.4549900E-02  1.4918300E-02   2.270717       11.41091    
  1.4918300E-02  1.5295900E-02   1.700453       14.87462    
  1.5295900E-02  1.5683100E-02   1.737369       19.57226    
  1.5683100E-02  1.6080100E-02   2.019441       11.74788    
  1.6080100E-02  1.6487200E-02   1.463858       12.24009    
  1.6487200E-02  1.6904600E-02   1.946813       12.86204    
  1.6904600E-02  1.7332500E-02   1.499257       14.90581    
  1.7332500E-02  1.7771300E-02   1.367657       13.99925    
  1.7771300E-02  1.8221200E-02   1.341056       10.52136    
  1.8221200E-02  1.8682500E-02   1.572894       9.850473    
  1.8682500E-02  1.9155400E-02   1.362698       16.54161    
  1.9155400E-02  1.9640300E-02   1.419238       12.32966    
  1.9640300E-02  2.0000000E-02   1.333924       16.29955    
