 # Detector n:  1  HeIInflux 
 # N. of energy intervals 260
  1.0000100E-14  2.0000000E-13  3.1728937E+10   10.93503    
  2.0000000E-13  2.9297300E-13  1.1620187E+11   15.70382    
  2.9297300E-13  4.2916701E-13  1.3774714E+11   9.683044    
  4.2916701E-13  6.2867300E-13  1.9954754E+11   9.031340    
  6.2867300E-13  9.2092198E-13  2.6547834E+11   3.744095    
  9.2092198E-13  1.3490300E-12  3.7715667E+11   4.716858    
  1.3490300E-12  1.9761499E-12  5.1439662E+11   2.542663    
  1.9761499E-12  2.8947901E-12  6.4443299E+11   2.385094    
  2.8947901E-12  4.2404799E-12  7.5634344E+11   1.696361    
  4.2404799E-12  6.2117499E-12  8.7087527E+11   1.370306    
  6.2117499E-12  9.0993801E-12  8.9988130E+11   1.020688    
  9.0993801E-12  1.3329400E-11  8.2250301E+11  0.8927703    
  1.3329400E-11  1.9525799E-11  6.3857033E+11  0.6661960    
  1.9525799E-11  2.8602700E-11  3.8943339E+11   1.194869    
  2.8602700E-11  4.1899099E-11  1.9582915E+11   1.348932    
  4.1899099E-11  6.1376598E-11  8.5650399E+10  0.9112781    
  6.1376598E-11  8.9908601E-11  3.5021124E+10  0.8357329    
  8.9908601E-11  1.3170399E-10  1.5094427E+10   1.528780    
  1.3170399E-10  1.9292901E-10  6.8072919E+09   1.245955    
  1.9292901E-10  2.8261499E-10  3.8651049E+09  0.9937994    
  2.8261499E-10  4.1399401E-10  2.3973489E+09  0.7711806    
  4.1399401E-10  5.3157900E-10  1.7544826E+09  0.6140331    
  5.3157900E-10  6.2506200E-10  1.4098237E+09   1.867345    
  6.2506200E-10  6.8256001E-10  1.2673632E+09   1.832246    
  6.8256001E-10  8.3368101E-10  1.0721928E+09   1.636257    
  8.3368101E-10  8.7642499E-10  9.5614342E+08   2.587083    
  8.7642499E-10  1.1253500E-09  8.1502483E+08   1.463342    
  1.1253500E-09  1.4449800E-09  6.3122880E+08   1.093102    
  1.4449800E-09  1.8553900E-09  4.9447578E+08  0.9770010    
  1.8553900E-09  2.3823701E-09  3.8133987E+08  0.7273260    
  2.3823701E-09  3.0590199E-09  2.9622605E+08  0.9550776    
  3.0590199E-09  3.9278598E-09  2.3138800E+08   1.143692    
  3.9278598E-09  5.0434799E-09  1.8245211E+08   1.120666    
  5.0434799E-09  6.4759500E-09  1.4333278E+08  0.9800995    
  6.4759500E-09  8.3152898E-09  1.1064575E+08   1.125163    
  8.3152898E-09  1.0677000E-08  8.7085752E+07  0.8661573    
  1.0677000E-08  1.3709600E-08  6.7833616E+07   1.147307    
  1.3709600E-08  1.7603501E-08  5.2648520E+07   1.024224    
  1.7603501E-08  2.2603301E-08  4.1421168E+07  0.9693114    
  2.2603301E-08  2.9023200E-08  3.2537796E+07  0.9406195    
  2.9023200E-08  3.7266499E-08  2.5546978E+07  0.6573337    
  3.7266499E-08  4.7851199E-08  1.9673530E+07   1.060865    
  4.7851199E-08  6.1442101E-08  1.5449877E+07   1.221546    
  6.1442101E-08  7.8893301E-08  1.2063175E+07  0.8368407    
  7.8893301E-08  1.0130100E-07   9375755.       1.179639    
  1.0130100E-07  1.3007300E-07   7369253.      0.7947611    
  1.3007300E-07  1.6701701E-07   5742018.      0.5279009    
  1.6701701E-07  2.1445400E-07   4449287.      0.6837353    
  2.1445400E-07  2.7536399E-07   3499802.      0.8021191    
  2.7536399E-07  3.5357499E-07   2701980.      0.7731096    
  3.5357499E-07  4.5399901E-07   2140164.      0.8168707    
  4.5399901E-07  5.8294700E-07   1641557.      0.8447691    
  5.8294700E-07  7.4851800E-07   1276451.       1.457801    
  7.4851800E-07  9.6111603E-07   973928.0      0.7260485    
  9.6111603E-07  1.2341000E-06   759853.2      0.9194306    
  1.2341000E-06  1.3638900E-06   624951.8       1.373431    
  1.3638900E-06  1.5073300E-06   575932.5       1.652279    
  1.5073300E-06  1.5846100E-06   514615.1       1.597283    
  1.5846100E-06  1.6658601E-06   493304.2       1.865736    
  1.6658601E-06  1.8410600E-06   466572.3       1.522409    
  1.8410600E-06  2.0346799E-06   415105.9       1.600387    
  2.0346799E-06  2.2486699E-06   371447.2       1.554185    
  2.2486699E-06  2.4851699E-06   336112.8       1.591812    
  2.4851699E-06  2.6125899E-06   310442.4       1.312521    
  2.6125899E-06  2.7465401E-06   306781.8       1.869044    
  2.7465401E-06  2.8634900E-06   284035.4       1.286994    
  2.8634900E-06  3.0353899E-06   273046.0       2.413838    
  3.0353899E-06  3.3546301E-06   246566.0       2.168365    
  3.3546301E-06  3.7074401E-06   225580.6       1.145245    
  3.7074401E-06  4.0973500E-06   197852.4       1.550866    
  4.0973500E-06  4.3074201E-06   185053.3       1.460846    
  4.3074201E-06  4.5282700E-06   169561.0       2.212125    
  4.5282700E-06  5.0045101E-06   162025.2       1.675413    
  5.0045101E-06  5.5308401E-06   161715.5      0.8202283    
  5.5308401E-06  6.2672698E-06   112664.2       1.291830    
  6.2672698E-06  7.1017398E-06   113187.4       1.111289    
  7.1017398E-06  8.0473301E-06   98311.37       1.590545    
  8.0473301E-06  9.1188203E-06   84924.27       1.168580    
  9.1188203E-06  1.0333000E-05   75189.26       1.477413    
  1.0333000E-05  1.1708800E-05   65948.88       1.886599    
  1.1708800E-05  1.3267800E-05   57975.25      0.9994990    
  1.3267800E-05  1.5034400E-05   49802.44       1.826210    
  1.5034400E-05  1.7036200E-05   41851.42       2.143811    
  1.7036200E-05  1.9304500E-05   37207.84       2.127000    
  1.9304500E-05  2.1334799E-05   33371.74       1.711525    
  2.1334799E-05  2.1874899E-05   31164.63       2.800498    
  2.1874899E-05  2.3578599E-05   28829.81       2.556809    
  2.3578599E-05  2.4175501E-05   27355.86       4.001527    
  2.4175501E-05  2.4787500E-05   26396.74       3.134507    
  2.4787500E-05  2.6058400E-05   25176.92       2.634372    
  2.6058400E-05  2.8087899E-05   26379.43       2.300999    
  2.8087899E-05  3.1827800E-05   28324.06      0.9577784    
  3.1827800E-05  3.4306700E-05   18151.76       2.133785    
  3.4306700E-05  3.5175199E-05   9229.923       5.555084    
  3.5175199E-05  3.6065601E-05   8839.438       2.913705    
  3.6065601E-05  4.0867701E-05   11305.09       2.068309    
  4.0867701E-05  4.6309200E-05   12522.23       1.416173    
  4.6309200E-05  5.2475199E-05   11083.52       1.515403    
  5.2475199E-05  5.6562199E-05   10012.81       1.778874    
  5.6562199E-05  5.9462200E-05   9501.157       1.945001    
  5.9462200E-05  6.2510902E-05   9553.121       2.507551    
  6.2510902E-05  6.7379500E-05   8782.606       2.821604    
  6.7379500E-05  7.6350902E-05   8580.305       1.113278    
  7.6350902E-05  8.6516899E-05   6385.931       1.597991    
  8.6516899E-05  9.8036500E-05   3686.413       1.163343    
  9.8036500E-05  1.1109000E-04   4324.647      0.9542363    
  1.1109000E-04  1.1678600E-04   4186.068       4.268584    
  1.1678600E-04  1.2277300E-04   2934.505       1.669742    
  1.2277300E-04  1.2906799E-04   4240.997       1.773325    
  1.2906799E-04  1.3568600E-04   4076.998       1.978935    
  1.3568600E-04  1.4264201E-04   3139.281       2.160407    
  1.4264201E-04  1.4995600E-04   2296.677       4.053202    
  1.4995600E-04  1.5764400E-04   2074.573       2.079865    
  1.5764400E-04  1.6163501E-04   1771.384       4.532060    
  1.6163501E-04  1.6572700E-04   2156.776       5.106166    
  1.6572700E-04  1.6992200E-04   2168.654       4.730544    
  1.6992200E-04  1.7422400E-04   2143.799       4.014447    
  1.7422400E-04  1.8315599E-04   2263.317       4.477224    
  1.8315599E-04  1.9254700E-04   2314.887       2.671783    
  1.9254700E-04  2.0241900E-04   1892.839       3.111848    
  2.0241900E-04  2.1279699E-04   1599.908       3.709316    
  2.1279699E-04  2.2370800E-04   1549.916       2.127437    
  2.2370800E-04  2.3517800E-04   1545.181       3.191243    
  2.3517800E-04  2.4723500E-04   1480.149       3.227272    
  2.4723500E-04  2.5991100E-04   1581.890       2.481161    
  2.5991100E-04  2.7323700E-04   1535.684       3.309921    
  2.7323700E-04  2.8015400E-04   1406.297       3.569284    
  2.8015400E-04  2.8724599E-04   1078.812       4.712853    
  2.8724599E-04  2.9451799E-04   1124.854       4.030678    
  2.9451799E-04  3.0197401E-04   1113.262       5.014009    
  3.0197401E-04  3.0961799E-04   1006.237       3.725820    
  3.0961799E-04  3.1745600E-04   990.8248       6.709836    
  3.1745600E-04  3.3373301E-04   966.7311       2.848657    
  3.3373301E-04  3.5084400E-04   1042.640       3.599361    
  3.5084400E-04  3.6883200E-04   889.8226       4.104312    
  3.6883200E-04  3.8774201E-04   795.9176       2.676073    
  3.8774201E-04  4.0762199E-04   792.2440       2.656064    
  4.0762199E-04  4.2852099E-04   650.4786       2.856629    
  4.2852099E-04  4.5049199E-04   606.6827       2.676019    
  4.5049199E-04  4.7358900E-04   605.0881       2.742918    
  4.7358900E-04  4.9787102E-04   593.8486       2.515709    
  4.9787102E-04  5.1047403E-04   561.9769       3.430773    
  5.1047403E-04  5.2339700E-04   561.2543       4.466442    
  5.2339700E-04  5.3664698E-04   483.1429       3.501145    
  5.3664698E-04  5.5023201E-04   468.5445       6.188238    
  5.5023201E-04  5.7844300E-04   432.3969       2.650110    
  5.7844300E-04  6.0810102E-04   450.2628       3.318661    
  6.0810102E-04  6.3927902E-04   353.5043       2.604938    
  6.3927902E-04  6.7205500E-04   326.3571       3.574652    
  6.7205500E-04  7.0651202E-04   305.3254       3.324873    
  7.0651202E-04  7.4273598E-04   296.2381       4.553324    
  7.4273598E-04  7.8081700E-04   249.1424       2.538487    
  7.8081700E-04  8.2085002E-04   190.8350       4.354819    
  8.2085002E-04  8.6293602E-04   173.2098       3.212786    
  8.6293602E-04  9.0717903E-04   174.1381       3.140587    
  9.0717903E-04  9.5369201E-04   153.3830       3.882710    
  9.5369201E-04  9.6163998E-04   127.7185       11.78838    
  9.6163998E-04  9.7783399E-04   138.3284       9.442108    
  9.7783399E-04  1.0025901E-03   131.4333       6.446367    
  1.0025901E-03  1.0539900E-03   111.2403       3.233284    
  1.0539900E-03  1.1080300E-03   127.8733       3.766557    
  1.1080300E-03  1.1648400E-03   104.4270       3.329945    
  1.1648400E-03  1.1943300E-03   101.6319       5.634040    
  1.1943300E-03  1.2245600E-03   93.39935       3.713009    
  1.2245600E-03  1.2873500E-03   99.01397       5.794802    
  1.2873500E-03  1.3533500E-03   89.89732       3.904731    
  1.3533500E-03  1.4227401E-03   85.06099       4.486670    
  1.4227401E-03  1.4956900E-03   81.78185       4.183058    
  1.4956900E-03  1.5335500E-03   78.79838       7.747234    
  1.5335500E-03  1.5723699E-03   74.74603       4.408524    
  1.5723699E-03  1.6121800E-03   75.72501       6.528717    
  1.6121800E-03  1.6529900E-03   76.83113       5.524141    
  1.6529900E-03  1.7377400E-03   65.40887       6.068589    
  1.7377400E-03  1.8268300E-03   64.77839       4.254871    
  1.8268300E-03  1.8730800E-03   72.12618       5.893704    
  1.8730800E-03  1.9205000E-03   65.50159       5.684941    
  1.9205000E-03  1.9691200E-03   59.61674       4.552976    
  1.9691200E-03  2.0189700E-03   53.66478       6.261755    
  2.0189700E-03  2.1224800E-03   53.41845       5.966227    
  2.1224800E-03  2.2313001E-03   46.30651       5.658064    
  2.2313001E-03  2.2688799E-03   49.96629       7.564691    
  2.2688799E-03  2.3068599E-03   41.89626       10.49630    
  2.3068599E-03  2.3457000E-03   55.68748       4.721026    
  2.3457000E-03  2.3652499E-03   52.17937       8.006789    
  2.3652499E-03  2.3852000E-03   29.38396       8.990606    
  2.3852000E-03  2.4251300E-03   37.30505       6.890943    
  2.4251300E-03  2.4659701E-03   47.85960       8.389738    
  2.4659701E-03  2.5923999E-03   35.00710       4.338725    
  2.5923999E-03  2.7253199E-03   33.24585       5.659227    
  2.7253199E-03  2.8650500E-03   28.46679       2.776972    
  2.8650500E-03  3.0119400E-03   26.33478       4.014783    
  3.0119400E-03  3.0881900E-03   26.35031       9.197881    
  3.0881900E-03  3.1663701E-03   24.33171       8.426308    
  3.1663701E-03  3.2465300E-03   21.35878       7.804231    
  3.2465300E-03  3.3287101E-03   23.31892       6.432482    
  3.3287101E-03  3.4993801E-03   20.37456       4.382859    
  3.4993801E-03  3.6787901E-03   16.55560       6.147461    
  3.6787901E-03  3.8674099E-03   17.55931       6.381508    
  3.8674099E-03  4.0656999E-03   15.06489       4.216459    
  4.0656999E-03  4.2741499E-03   14.47955       6.077019    
  4.2741499E-03  4.4932901E-03   13.89479       3.642194    
  4.4932901E-03  4.6070400E-03   14.75659       6.348907    
  4.6070400E-03  4.7236700E-03   11.23686       8.111478    
  4.7236700E-03  4.8432499E-03   9.935157       9.325371    
  4.8432499E-03  4.9658502E-03   10.85287       14.69653    
  4.9658502E-03  5.2204598E-03   10.34410       4.879752    
  5.2204598E-03  5.4881200E-03   11.01172       7.400521    
  5.4881200E-03  5.7695000E-03   10.76362       4.743456    
  5.7695000E-03  5.9155500E-03   7.234928       9.500157    
  5.9155500E-03  6.0653100E-03   8.094669       10.93984    
  6.0653100E-03  6.2188501E-03   8.461166       7.829702    
  6.2188501E-03  6.3762800E-03   7.752061       14.31480    
  6.3762800E-03  6.5377001E-03   8.370752       14.55009    
  6.5377001E-03  6.5923799E-03   9.095942       14.62270    
  6.5923799E-03  6.6475999E-03   9.150933       12.23264    
  6.6475999E-03  6.7031998E-03   9.134112       16.12439    
  6.7031998E-03  6.8728901E-03   6.068927       10.48387    
  6.8728901E-03  7.0468802E-03   6.205643       5.728117    
  7.0468802E-03  7.2252699E-03   5.987713       8.840477    
  7.2252699E-03  7.4081798E-03   6.485957       11.80702    
  7.4081798E-03  7.5957198E-03   7.586347       10.27939    
  7.5957198E-03  7.7880099E-03   6.901407       9.532064    
  7.7880099E-03  7.9851598E-03   5.596664       10.93362    
  7.9851598E-03  8.1873098E-03   5.419394       9.072231    
  8.1873098E-03  8.3945701E-03   5.039489       11.94959    
  8.3945701E-03  8.6070802E-03   5.079848       12.85649    
  8.6070802E-03  8.8249696E-03   4.616502       9.183482    
  8.8249696E-03  9.0483697E-03   6.126915       9.811479    
  9.0483697E-03  9.2774397E-03   4.822811       7.775268    
  9.2774397E-03  9.5122904E-03   5.019195       10.97528    
  9.5122904E-03  9.7530996E-03   3.878934       11.18381    
  9.7530996E-03  9.9999998E-03   4.713217       15.81852    
  9.9999998E-03  1.0253200E-02   3.262046       12.81669    
  1.0253200E-02  1.0512700E-02   3.861859       13.29253    
  1.0512700E-02  1.0778800E-02   4.124470       12.02922    
  1.0778800E-02  1.1051700E-02   3.453466       15.70050    
  1.1051700E-02  1.1331500E-02   3.174230       7.834439    
  1.1331500E-02  1.1618300E-02   3.971008       15.08726    
  1.1618300E-02  1.1912500E-02   3.319642       9.652925    
  1.1912500E-02  1.2214000E-02   2.911446       11.71363    
  1.2214000E-02  1.2523200E-02   3.003760       9.242343    
  1.2523200E-02  1.2840200E-02   3.501276       15.27146    
  1.2840200E-02  1.3165300E-02   3.434972       14.37271    
  1.3165300E-02  1.3498600E-02   3.565907       10.75014    
  1.3498600E-02  1.3840300E-02   2.691100       12.48261    
  1.3840300E-02  1.4190700E-02   2.563529       16.46357    
  1.4190700E-02  1.4549900E-02   2.619215       14.47451    
  1.4549900E-02  1.4918300E-02   2.532655       9.820560    
  1.4918300E-02  1.5295900E-02   2.334780       12.01129    
  1.5295900E-02  1.5683100E-02   2.321594       12.40567    
  1.5683100E-02  1.6080100E-02   2.183554       12.81649    
  1.6080100E-02  1.6487200E-02   3.169012       11.99045    
  1.6487200E-02  1.6904600E-02   2.419356       10.40298    
  1.6904600E-02  1.7332500E-02   1.986482       10.05742    
  1.7332500E-02  1.7771300E-02   1.585413       14.09080    
  1.7771300E-02  1.8221200E-02   2.464897       14.10181    
  1.8221200E-02  1.8682500E-02   1.733484       17.74116    
  1.8682500E-02  1.9155400E-02   1.847741       10.76732    
  1.9155400E-02  1.9640300E-02   1.707672       13.37465    
  1.9640300E-02  2.0000000E-02   1.586245       15.24394    
