 # Detector n:  1  HeIInflux 
 # N. of energy intervals 260
  1.0000100E-14  2.0000000E-13  1.9167764E+10   19.62614    
  2.0000000E-13  2.9297300E-13  4.6816776E+10   15.74420    
  2.9297300E-13  4.2916701E-13  7.5533894E+10   15.12681    
  4.2916701E-13  6.2867300E-13  7.2827093E+10   8.977985    
  6.2867300E-13  9.2092198E-13  1.1719674E+11   9.392552    
  9.2092198E-13  1.3490300E-12  1.7789041E+11   5.442947    
  1.3490300E-12  1.9761499E-12  2.2835426E+11   3.629359    
  1.9761499E-12  2.8947901E-12  3.1088722E+11   3.476694    
  2.8947901E-12  4.2404799E-12  3.7648977E+11   1.648958    
  4.2404799E-12  6.2117499E-12  4.5236843E+11   2.448098    
  6.2117499E-12  9.0993801E-12  4.5584551E+11  0.8959131    
  9.0993801E-12  1.3329400E-11  4.1645471E+11   1.166578    
  1.3329400E-11  1.9525799E-11  3.2493014E+11  0.8889111    
  1.9525799E-11  2.8602700E-11  1.9378151E+11   1.185235    
  2.8602700E-11  4.1899099E-11  9.1776016E+10   1.345570    
  4.1899099E-11  6.1376598E-11  3.8136934E+10   1.905834    
  6.1376598E-11  8.9908601E-11  1.8638793E+10   1.296010    
  8.9908601E-11  1.3170399E-10  9.2754790E+09   1.713935    
  1.3170399E-10  1.9292901E-10  5.3006264E+09   1.588259    
  1.9292901E-10  2.8261499E-10  3.3306107E+09  0.9790611    
  2.8261499E-10  4.1399401E-10  2.2063923E+09   1.114389    
  4.1399401E-10  5.3157900E-10  1.6355370E+09  0.8465715    
  5.3157900E-10  6.2506200E-10  1.3453478E+09  0.9799765    
  6.2506200E-10  6.8256001E-10  1.1677876E+09   1.488001    
  6.8256001E-10  8.3368101E-10  9.9880192E+08   1.245146    
  8.3368101E-10  8.7642499E-10  8.9733715E+08   2.444720    
  8.7642499E-10  1.1253500E-09  7.5594067E+08  0.9070805    
  1.1253500E-09  1.4449800E-09  5.9903002E+08  0.8922977    
  1.4449800E-09  1.8553900E-09  4.6960208E+08   1.332988    
  1.8553900E-09  2.3823701E-09  3.6604864E+08  0.8805566    
  2.3823701E-09  3.0590199E-09  2.8482982E+08   1.153260    
  3.0590199E-09  3.9278598E-09  2.1922440E+08   1.000517    
  3.9278598E-09  5.0434799E-09  1.6851170E+08   1.458180    
  5.0434799E-09  6.4759500E-09  1.3689926E+08  0.8179686    
  6.4759500E-09  8.3152898E-09  1.0613878E+08  0.8623961    
  8.3152898E-09  1.0677000E-08  8.3252552E+07  0.7007608    
  1.0677000E-08  1.3709600E-08  6.4825912E+07   1.184808    
  1.3709600E-08  1.7603501E-08  5.1296972E+07  0.8016794    
  1.7603501E-08  2.2603301E-08  3.9499660E+07  0.8046753    
  2.2603301E-08  2.9023200E-08  3.1352488E+07   1.035363    
  2.9023200E-08  3.7266499E-08  2.4312422E+07   1.015877    
  3.7266499E-08  4.7851199E-08  1.9033164E+07  0.8579354    
  4.7851199E-08  6.1442101E-08  1.4902882E+07  0.9172453    
  6.1442101E-08  7.8893301E-08  1.1550491E+07   1.080708    
  7.8893301E-08  1.0130100E-07   9115745.       1.013785    
  1.0130100E-07  1.3007300E-07   6967366.      0.8666777    
  1.3007300E-07  1.6701701E-07   5480222.       1.110573    
  1.6701701E-07  2.1445400E-07   4295792.       1.139088    
  2.1445400E-07  2.7536399E-07   3323306.       1.180576    
  2.7536399E-07  3.5357499E-07   2607840.       1.012080    
  3.5357499E-07  4.5399901E-07   1984576.      0.6495189    
  4.5399901E-07  5.8294700E-07   1534762.      0.9828032    
  5.8294700E-07  7.4851800E-07   1195286.       1.133126    
  7.4851800E-07  9.6111603E-07   921296.9      0.9298583    
  9.6111603E-07  1.2341000E-06   711193.8      0.9142891    
  1.2341000E-06  1.3638900E-06   603908.1       1.559954    
  1.3638900E-06  1.5073300E-06   531801.2       1.327492    
  1.5073300E-06  1.5846100E-06   490722.3       1.579783    
  1.5846100E-06  1.6658601E-06   481710.0       2.238418    
  1.6658601E-06  1.8410600E-06   451140.9       1.694581    
  1.8410600E-06  2.0346799E-06   388845.7       1.372532    
  2.0346799E-06  2.2486699E-06   361968.2       1.674752    
  2.2486699E-06  2.4851699E-06   310687.1       1.263894    
  2.4851699E-06  2.6125899E-06   298569.2       2.235000    
  2.6125899E-06  2.7465401E-06   278611.0       2.028152    
  2.7465401E-06  2.8634900E-06   258602.2       2.458115    
  2.8634900E-06  3.0353899E-06   259976.1       2.087639    
  3.0353899E-06  3.3546301E-06   235412.6       1.715226    
  3.3546301E-06  3.7074401E-06   205520.1       1.361086    
  3.7074401E-06  4.0973500E-06   185501.8       2.061167    
  4.0973500E-06  4.3074201E-06   175404.9       1.861926    
  4.3074201E-06  4.5282700E-06   163864.0       2.785079    
  4.5282700E-06  5.0045101E-06   153743.2       1.636719    
  5.0045101E-06  5.5308401E-06   151487.7      0.8089277    
  5.5308401E-06  6.2672698E-06   105426.2       1.410477    
  6.2672698E-06  7.1017398E-06   104343.8       1.778488    
  7.1017398E-06  8.0473301E-06   90788.74       1.184835    
  8.0473301E-06  9.1188203E-06   78881.22       1.336890    
  9.1188203E-06  1.0333000E-05   71360.11       1.341314    
  1.0333000E-05  1.1708800E-05   59677.24       1.055213    
  1.1708800E-05  1.3267800E-05   53659.91       1.319352    
  1.3267800E-05  1.5034400E-05   45652.71       1.870662    
  1.5034400E-05  1.7036200E-05   39497.36       1.626011    
  1.7036200E-05  1.9304500E-05   34755.86       1.467441    
  1.9304500E-05  2.1334799E-05   29012.18       1.358439    
  2.1334799E-05  2.1874899E-05   28429.04       3.963723    
  2.1874899E-05  2.3578599E-05   26925.96       1.958720    
  2.3578599E-05  2.4175501E-05   25751.84       2.604861    
  2.4175501E-05  2.4787500E-05   23801.17       3.313800    
  2.4787500E-05  2.6058400E-05   22697.17       3.755298    
  2.6058400E-05  2.8087899E-05   23147.42       2.306379    
  2.8087899E-05  3.1827800E-05   25107.92       1.015409    
  3.1827800E-05  3.4306700E-05   16515.66       2.151922    
  3.4306700E-05  3.5175199E-05   8327.360       4.901156    
  3.5175199E-05  3.6065601E-05   7756.657       6.064262    
  3.6065601E-05  4.0867701E-05   10444.00       1.678922    
  4.0867701E-05  4.6309200E-05   11409.01       1.384399    
  4.6309200E-05  5.2475199E-05   10283.62       1.961969    
  5.2475199E-05  5.6562199E-05   8990.417       2.666169    
  5.6562199E-05  5.9462200E-05   8825.785       3.002384    
  5.9462200E-05  6.2510902E-05   8467.850       2.495965    
  6.2510902E-05  6.7379500E-05   7848.800       2.144863    
  6.7379500E-05  7.6350902E-05   7744.560       1.679792    
  7.6350902E-05  8.6516899E-05   5731.486       1.658319    
  8.6516899E-05  9.8036500E-05   3398.556       2.170722    
  9.8036500E-05  1.1109000E-04   3876.906       1.242303    
  1.1109000E-04  1.1678600E-04   3767.151       2.522416    
  1.1678600E-04  1.2277300E-04   2922.493       3.741564    
  1.2277300E-04  1.2906799E-04   3823.173       2.695075    
  1.2906799E-04  1.3568600E-04   3736.406       1.650961    
  1.3568600E-04  1.4264201E-04   2801.659       2.414305    
  1.4264201E-04  1.4995600E-04   2262.458       3.070287    
  1.4995600E-04  1.5764400E-04   2033.099       2.908232    
  1.5764400E-04  1.6163501E-04   1546.940       5.287000    
  1.6163501E-04  1.6572700E-04   1911.872       5.247848    
  1.6572700E-04  1.6992200E-04   2153.476       2.967536    
  1.6992200E-04  1.7422400E-04   2123.435       4.201219    
  1.7422400E-04  1.8315599E-04   2053.365       2.320323    
  1.8315599E-04  1.9254700E-04   2052.627       2.824174    
  1.9254700E-04  2.0241900E-04   1813.724       3.060767    
  2.0241900E-04  2.1279699E-04   1382.645       3.148893    
  2.1279699E-04  2.2370800E-04   1408.757       2.844626    
  2.2370800E-04  2.3517800E-04   1355.093       3.220686    
  2.3517800E-04  2.4723500E-04   1369.838       2.711786    
  2.4723500E-04  2.5991100E-04   1380.254       3.324322    
  2.5991100E-04  2.7323700E-04   1408.769       2.453626    
  2.7323700E-04  2.8015400E-04   1364.813       6.151115    
  2.8015400E-04  2.8724599E-04   1016.529       5.512460    
  2.8724599E-04  2.9451799E-04   986.1710       4.737643    
  2.9451799E-04  3.0197401E-04   1018.104       3.925863    
  3.0197401E-04  3.0961799E-04   967.6472       5.550213    
  3.0961799E-04  3.1745600E-04   887.1370       7.513409    
  3.1745600E-04  3.3373301E-04   940.2137       2.948289    
  3.3373301E-04  3.5084400E-04   964.9106       3.630716    
  3.5084400E-04  3.6883200E-04   760.1681       3.731586    
  3.6883200E-04  3.8774201E-04   791.6132       5.868169    
  3.8774201E-04  4.0762199E-04   712.0657       2.914559    
  4.0762199E-04  4.2852099E-04   634.1505       3.295305    
  4.2852099E-04  4.5049199E-04   543.2830       2.248387    
  4.5049199E-04  4.7358900E-04   572.0273       3.410118    
  4.7358900E-04  4.9787102E-04   563.9026       4.102451    
  4.9787102E-04  5.1047403E-04   532.0847       5.709768    
  5.1047403E-04  5.2339700E-04   486.4967       5.367576    
  5.2339700E-04  5.3664698E-04   388.2018       5.942413    
  5.3664698E-04  5.5023201E-04   436.2383       5.444467    
  5.5023201E-04  5.7844300E-04   402.9505       2.975623    
  5.7844300E-04  6.0810102E-04   381.4006       5.175474    
  6.0810102E-04  6.3927902E-04   331.9510       3.697716    
  6.3927902E-04  6.7205500E-04   297.2334       5.058551    
  6.7205500E-04  7.0651202E-04   296.7313       3.084177    
  7.0651202E-04  7.4273598E-04   260.1734       3.985791    
  7.4273598E-04  7.8081700E-04   230.9942       3.163433    
  7.8081700E-04  8.2085002E-04   180.6400       3.510854    
  8.2085002E-04  8.6293602E-04   160.7676       3.359218    
  8.6293602E-04  9.0717903E-04   155.7558       3.899765    
  9.0717903E-04  9.5369201E-04   143.0583       3.774473    
  9.5369201E-04  9.6163998E-04   128.7207       9.809062    
  9.6163998E-04  9.7783399E-04   124.4013       6.144649    
  9.7783399E-04  1.0025901E-03   133.4649       4.380229    
  1.0025901E-03  1.0539900E-03   118.8364       3.906152    
  1.0539900E-03  1.1080300E-03   112.7027       2.621557    
  1.1080300E-03  1.1648400E-03   98.07704       3.440828    
  1.1648400E-03  1.1943300E-03   98.32579       4.778739    
  1.1943300E-03  1.2245600E-03   95.46343       3.658567    
  1.2245600E-03  1.2873500E-03   90.45788       4.608903    
  1.2873500E-03  1.3533500E-03   85.40022       4.940856    
  1.3533500E-03  1.4227401E-03   85.42648       2.959518    
  1.4227401E-03  1.4956900E-03   75.82397       2.916021    
  1.4956900E-03  1.5335500E-03   77.69113       6.305411    
  1.5335500E-03  1.5723699E-03   70.41434       7.923196    
  1.5723699E-03  1.6121800E-03   68.41412       6.896140    
  1.6121800E-03  1.6529900E-03   63.73190       6.453519    
  1.6529900E-03  1.7377400E-03   67.74855       3.801949    
  1.7377400E-03  1.8268300E-03   61.55128       6.059531    
  1.8268300E-03  1.8730800E-03   59.09672       5.297633    
  1.8730800E-03  1.9205000E-03   53.09017       9.467482    
  1.9205000E-03  1.9691200E-03   50.03946       5.564822    
  1.9691200E-03  2.0189700E-03   51.65178       5.591806    
  2.0189700E-03  2.1224800E-03   46.45139       5.369667    
  2.1224800E-03  2.2313001E-03   42.52772       4.796939    
  2.2313001E-03  2.2688799E-03   45.66505       8.841306    
  2.2688799E-03  2.3068599E-03   37.80400       4.704389    
  2.3068599E-03  2.3457000E-03   29.99148       7.842165    
  2.3457000E-03  2.3652499E-03   42.01878       13.51701    
  2.3652499E-03  2.3852000E-03   47.11607       9.134888    
  2.3852000E-03  2.4251300E-03   36.83292       7.452344    
  2.4251300E-03  2.4659701E-03   35.32761       10.14992    
  2.4659701E-03  2.5923999E-03   32.89067       6.261439    
  2.5923999E-03  2.7253199E-03   28.40792       7.640272    
  2.7253199E-03  2.8650500E-03   25.02079       4.680699    
  2.8650500E-03  3.0119400E-03   20.94222       6.868873    
  3.0119400E-03  3.0881900E-03   22.80356       10.50472    
  3.0881900E-03  3.1663701E-03   21.52612       13.93046    
  3.1663701E-03  3.2465300E-03   18.74579       7.958116    
  3.2465300E-03  3.3287101E-03   18.47113       9.124317    
  3.3287101E-03  3.4993801E-03   16.86257       7.906566    
  3.4993801E-03  3.6787901E-03   16.24266       7.578508    
  3.6787901E-03  3.8674099E-03   14.56364       6.654848    
  3.8674099E-03  4.0656999E-03   12.40487       4.845217    
  4.0656999E-03  4.2741499E-03   13.05706       8.139947    
  4.2741499E-03  4.4932901E-03   10.82794       6.413043    
  4.4932901E-03  4.6070400E-03   10.52025       6.587340    
  4.6070400E-03  4.7236700E-03   9.797009       8.193995    
  4.7236700E-03  4.8432499E-03   9.556735       13.11755    
  4.8432499E-03  4.9658502E-03   9.705966       13.11872    
  4.9658502E-03  5.2204598E-03   9.809861       9.367609    
  5.2204598E-03  5.4881200E-03   9.293655       6.011282    
  5.4881200E-03  5.7695000E-03   7.247299       6.725964    
  5.7695000E-03  5.9155500E-03   7.875590       11.76477    
  5.9155500E-03  6.0653100E-03   5.149705       14.98161    
  6.0653100E-03  6.2188501E-03   5.644767       10.84296    
  6.2188501E-03  6.3762800E-03   7.037971       9.249358    
  6.3762800E-03  6.5377001E-03   6.645531       12.76322    
  6.5377001E-03  6.5923799E-03   5.452757       15.36087    
  6.5923799E-03  6.6475999E-03   5.941804       26.96751    
  6.6475999E-03  6.7031998E-03   4.189230       23.54745    
  6.7031998E-03  6.8728901E-03   6.428873       9.073066    
  6.8728901E-03  7.0468802E-03   6.419637       10.84241    
  7.0468802E-03  7.2252699E-03   6.773519       12.01317    
  7.2252699E-03  7.4081798E-03   4.987121       16.93839    
  7.4081798E-03  7.5957198E-03   4.764254       12.73646    
  7.5957198E-03  7.7880099E-03   5.037118       10.43904    
  7.7880099E-03  7.9851598E-03   4.746501       9.667767    
  7.9851598E-03  8.1873098E-03   4.578357       11.62010    
  8.1873098E-03  8.3945701E-03   5.027594       11.35571    
  8.3945701E-03  8.6070802E-03   4.191020       12.85827    
  8.6070802E-03  8.8249696E-03   3.839471       5.804995    
  8.8249696E-03  9.0483697E-03   4.846733       9.816414    
  9.0483697E-03  9.2774397E-03   3.720955       8.832773    
  9.2774397E-03  9.5122904E-03   4.195219       12.37287    
  9.5122904E-03  9.7530996E-03   3.668304       18.66531    
  9.7530996E-03  9.9999998E-03   3.618740       11.81257    
  9.9999998E-03  1.0253200E-02   2.773805       16.54221    
  1.0253200E-02  1.0512700E-02   3.515136       11.76239    
  1.0512700E-02  1.0778800E-02   3.311275       13.81520    
  1.0778800E-02  1.1051700E-02   2.799227       9.529469    
  1.1051700E-02  1.1331500E-02   3.289452       9.634580    
  1.1331500E-02  1.1618300E-02   2.913322       14.62870    
  1.1618300E-02  1.1912500E-02   3.149610       12.41274    
  1.1912500E-02  1.2214000E-02   2.875194       15.12266    
  1.2214000E-02  1.2523200E-02   3.140696       10.30726    
  1.2523200E-02  1.2840200E-02   2.794164       15.78773    
  1.2840200E-02  1.3165300E-02   2.434433       16.72082    
  1.3165300E-02  1.3498600E-02   2.457583       12.21266    
  1.3498600E-02  1.3840300E-02   2.207738       11.76776    
  1.3840300E-02  1.4190700E-02   1.989156       14.10297    
  1.4190700E-02  1.4549900E-02   2.355694       8.248802    
  1.4549900E-02  1.4918300E-02   2.300011       13.67695    
  1.4918300E-02  1.5295900E-02   1.690658       13.19026    
  1.5295900E-02  1.5683100E-02   1.893217       15.79092    
  1.5683100E-02  1.6080100E-02   1.900880       16.24342    
  1.6080100E-02  1.6487200E-02   2.187758       10.26835    
  1.6487200E-02  1.6904600E-02   1.859991       11.46782    
  1.6904600E-02  1.7332500E-02   1.692958       19.22952    
  1.7332500E-02  1.7771300E-02   1.507594       19.07406    
  1.7771300E-02  1.8221200E-02   1.513961       13.71932    
  1.8221200E-02  1.8682500E-02   1.396080       15.41264    
  1.8682500E-02  1.9155400E-02   1.529026       14.57628    
  1.9155400E-02  1.9640300E-02   1.363707       15.88497    
  1.9640300E-02  2.0000000E-02   1.186326       17.47453    
