 # Detector n:            1   HeIInflux 
 # N. of energy intervals         260
  1.0000100E-14  2.0000000E-13  7.9368487E+10  0.5656460    
  2.0000000E-13  2.9297300E-13  1.7542344E+11  0.5185885    
  2.9297300E-13  4.2916701E-13  2.4906872E+11  0.3832742    
  4.2916701E-13  6.2867300E-13  3.5065653E+11  0.2549461    
  6.2867300E-13  9.2092198E-13  4.8325211E+11  0.1830950    
  9.2092198E-13  1.3490300E-12  6.4892699E+11  0.1407590    
  1.3490300E-12  1.9761499E-12  8.3824561E+11  9.7667485E-02
  1.9761499E-12  2.8947901E-12  1.0529419E+12  7.4028581E-02
  2.8947901E-12  4.2404799E-12  1.2511022E+12  5.7586048E-02
  4.2404799E-12  6.2117499E-12  1.3889092E+12  4.7846779E-02
  6.2117499E-12  9.0993801E-12  1.4131226E+12  3.8234226E-02
  9.0993801E-12  1.3329400E-11  1.2850901E+12  3.6247279E-02
  1.3329400E-11  1.9525799E-11  1.0094913E+12  3.4533083E-02
  1.9525799E-11  2.8602700E-11  6.6634744E+11  3.5348870E-02
  2.8602700E-11  4.1899099E-11  3.6940481E+11  3.6592461E-02
  4.1899099E-11  6.1376598E-11  1.8456379E+11  4.0651772E-02
  6.1376598E-11  8.9908601E-11  8.4055196E+10  5.0605066E-02
  8.9908601E-11  1.3170399E-10  3.2627794E+10  6.2290318E-02
  1.3170399E-10  1.9292901E-10  1.2021396E+10  8.2134992E-02
  1.9292901E-10  2.8261499E-10  5.4609213E+09  0.1068648    
  2.8261499E-10  4.1399401E-10  3.1793431E+09  0.1122362    
  4.1399401E-10  5.3157900E-10  2.2177556E+09  0.1428729    
  5.3157900E-10  6.2506200E-10  1.7782511E+09  0.1754661    
  6.2506200E-10  6.8256001E-10  1.5451185E+09  0.2333039    
  6.8256001E-10  8.3368101E-10  1.3275613E+09  0.1571964    
  8.3368101E-10  8.7642499E-10  1.1585110E+09  0.3118034    
  8.7642499E-10  1.1253500E-09  9.8340077E+08  0.1379445    
  1.1253500E-09  1.4449800E-09  7.5472896E+08  0.1456138    
  1.4449800E-09  1.8553900E-09  5.8020070E+08  0.1535394    
  1.8553900E-09  2.3823701E-09  4.4790902E+08  0.1442172    
  2.3823701E-09  3.0590199E-09  3.4608627E+08  0.1427856    
  3.0590199E-09  3.9278598E-09  2.6554254E+08  0.1479546    
  3.9278598E-09  5.0434799E-09  2.0613954E+08  0.1468695    
  5.0434799E-09  6.4759500E-09  1.6002533E+08  0.1512335    
  6.4759500E-09  8.3152898E-09  1.2417916E+08  0.1486227    
  8.3152898E-09  1.0677000E-08  9.6017992E+07  0.1503220    
  1.0677000E-08  1.3709600E-08  7.4551808E+07  0.1511367    
  1.3709600E-08  1.7603501E-08  5.7602660E+07  0.1513801    
  1.7603501E-08  2.2603301E-08  4.4636776E+07  0.1558210    
  2.2603301E-08  2.9023200E-08  3.4530436E+07  0.1525739    
  2.9023200E-08  3.7266499E-08  2.6660444E+07  0.1566189    
  3.7266499E-08  4.7851199E-08  2.0532272E+07  0.1518261    
  4.7851199E-08  6.1442101E-08  1.5857411E+07  0.1526075    
  6.1442101E-08  7.8893301E-08  1.2214105E+07  0.1549686    
  7.8893301E-08  1.0130100E-07   9402087.      0.1563401    
  1.0130100E-07  1.3007300E-07   7255600.      0.1535488    
  1.3007300E-07  1.6701701E-07   5595558.      0.1576584    
  1.6701701E-07  2.1445400E-07   4293628.      0.1580861    
  2.1445400E-07  2.7536399E-07   3294436.      0.1533649    
  2.7536399E-07  3.5357499E-07   2548538.      0.1683475    
  3.5357499E-07  4.5399901E-07   1908166.      0.1600522    
  4.5399901E-07  5.8294700E-07   1464404.      0.1647031    
  5.8294700E-07  7.4851800E-07   1131361.      0.1704188    
  7.4851800E-07  9.6111603E-07   864103.9      0.1706577    
  9.6111603E-07  1.2341000E-06   659997.4      0.1722824    
  1.2341000E-06  1.3638900E-06   547565.6      0.2742006    
  1.3638900E-06  1.5073300E-06   492681.0      0.2550610    
  1.5073300E-06  1.5846100E-06   452524.3      0.3640633    
  1.5846100E-06  1.6658601E-06   430590.8      0.3794168    
  1.6658601E-06  1.8410600E-06   396876.9      0.2575315    
  1.8410600E-06  2.0346799E-06   375863.5      0.2584310    
  2.0346799E-06  2.2486699E-06   299126.2      0.2819506    
  2.2486699E-06  2.4851699E-06   282038.5      0.2744128    
  2.4851699E-06  2.6125899E-06   254517.5      0.3807310    
  2.6125899E-06  2.7465401E-06   232637.3      0.3880230    
  2.7465401E-06  2.8634900E-06   231073.5      0.4074851    
  2.8634900E-06  3.0353899E-06   220137.8      0.3647482    
  3.0353899E-06  3.3546301E-06   203393.5      0.2696495    
  3.3546301E-06  3.7074401E-06   182738.2      0.2831471    
  3.7074401E-06  4.0973500E-06   161607.7      0.2796945    
  4.0973500E-06  4.3074201E-06   149790.4      0.3953051    
  4.3074201E-06  4.5282700E-06   140174.7      0.3981087    
  4.5282700E-06  5.0045101E-06   130088.8      0.2745289    
  5.0045101E-06  5.5308401E-06   128946.7      0.2720592    
  5.5308401E-06  6.2672698E-06   85658.70      0.2760240    
  6.2672698E-06  7.1017398E-06   87919.02      0.2597640    
  7.1017398E-06  8.0473301E-06   76547.39      0.2645713    
  8.0473301E-06  9.1188203E-06   66452.16      0.2680182    
  9.1188203E-06  1.0333000E-05   56859.57      0.2678359    
  1.0333000E-05  1.1708800E-05   49790.17      0.2672327    
  1.1708800E-05  1.3267800E-05   43349.75      0.2603335    
  1.3267800E-05  1.5034400E-05   36890.98      0.2775303    
  1.5034400E-05  1.7036200E-05   31908.81      0.2878977    
  1.7036200E-05  1.9304500E-05   27665.77      0.2958397    
  1.9304500E-05  2.1334799E-05   24048.31      0.3228132    
  2.1334799E-05  2.1874899E-05   22154.98      0.6656227    
  2.1874899E-05  2.3578599E-05   21236.99      0.3669719    
  2.3578599E-05  2.4175501E-05   20203.82      0.6082010    
  2.4175501E-05  2.4787500E-05   19912.59      0.6673652    
  2.4787500E-05  2.6058400E-05   19019.02      0.4373387    
  2.6058400E-05  2.8087899E-05   18578.75      0.3439837    
  2.8087899E-05  3.1827800E-05   19499.78      0.2669820    
  3.1827800E-05  3.4306700E-05   11679.06      0.3925129    
  3.4306700E-05  3.5175199E-05   5726.167      0.9831786    
  3.5175199E-05  3.6065601E-05   5432.669      0.9751088    
  3.6065601E-05  4.0867701E-05   7323.162      0.3731245    
  4.0867701E-05  4.6309200E-05   8645.063      0.3233563    
  4.6309200E-05  5.2475199E-05   7928.263      0.3176011    
  5.2475199E-05  5.6562199E-05   7054.388      0.4131858    
  5.6562199E-05  5.9462200E-05   6621.010      0.5067356    
  5.9462200E-05  6.2510902E-05   6328.051      0.4928655    
  6.2510902E-05  6.7379500E-05   6075.170      0.4212053    
  6.7379500E-05  7.6350902E-05   6040.184      0.3047150    
  7.6350902E-05  8.6516899E-05   4208.004      0.3369879    
  8.6516899E-05  9.8036500E-05   2390.032      0.4301724    
  9.8036500E-05  1.1109000E-04   3012.195      0.3644770    
  1.1109000E-04  1.1678600E-04   2981.405      0.5105593    
  1.1678600E-04  1.2277300E-04   2054.736      0.6219996    
  1.2277300E-04  1.2906799E-04   3000.705      0.4938878    
  1.2906799E-04  1.3568600E-04   3031.962      0.4956315    
  1.3568600E-04  1.4264201E-04   2184.601      0.5793817    
  1.4264201E-04  1.4995600E-04   1623.689      0.6160021    
  1.4995600E-04  1.5764400E-04   1523.594      0.6309037    
  1.5764400E-04  1.6163501E-04   1193.683      0.9836043    
  1.6163501E-04  1.6572700E-04   1477.933      0.8918883    
  1.6572700E-04  1.6992200E-04   1552.131      0.8698169    
  1.6992200E-04  1.7422400E-04   1579.118      0.8686688    
  1.7422400E-04  1.8315599E-04   1610.692      0.5647970    
  1.8315599E-04  1.9254700E-04   1622.817      0.5484453    
  1.9254700E-04  2.0241900E-04   1465.478      0.5855573    
  2.0241900E-04  2.1279699E-04   1122.479      0.6460583    
  2.1279699E-04  2.2370800E-04   1143.501      0.6102750    
  2.2370800E-04  2.3517800E-04   1108.152      0.5973243    
  2.3517800E-04  2.4723500E-04   1128.735      0.5940186    
  2.4723500E-04  2.5991100E-04   1116.274      0.5620768    
  2.5991100E-04  2.7323700E-04   1170.800      0.5494562    
  2.7323700E-04  2.8015400E-04   1030.129      0.7753578    
  2.8015400E-04  2.8724599E-04   813.3195      0.9063928    
  2.8724599E-04  2.9451799E-04   800.1599      0.8909905    
  2.9451799E-04  3.0197401E-04   818.1884      0.8442312    
  3.0197401E-04  3.0961799E-04   796.6059      0.8576162    
  3.0961799E-04  3.1745600E-04   740.2072      0.8874948    
  3.1745600E-04  3.3373301E-04   765.2164      0.6186664    
  3.3373301E-04  3.5084400E-04   756.2601      0.6015442    
  3.5084400E-04  3.6883200E-04   646.8155      0.6233736    
  3.6883200E-04  3.8774201E-04   605.8887      0.6201740    
  3.8774201E-04  4.0762199E-04   575.9697      0.6368504    
  4.0762199E-04  4.2852099E-04   472.4441      0.6430550    
  4.2852099E-04  4.5049199E-04   433.5104      0.6983085    
  4.5049199E-04  4.7358900E-04   429.5614      0.6834736    
  4.7358900E-04  4.9787102E-04   423.0775      0.6288974    
  4.9787102E-04  5.1047403E-04   413.2696      0.8820819    
  5.1047403E-04  5.2339700E-04   405.2567      0.8772441    
  5.2339700E-04  5.3664698E-04   330.2138      0.9667878    
  5.3664698E-04  5.5023201E-04   353.5570      0.9117336    
  5.5023201E-04  5.7844300E-04   322.6549      0.6665527    
  5.7844300E-04  6.0810102E-04   304.1276      0.6518955    
  6.0810102E-04  6.3927902E-04   272.1358      0.6671692    
  6.3927902E-04  6.7205500E-04   236.1124      0.6845918    
  6.7205500E-04  7.0651202E-04   229.9503      0.6440967    
  7.0651202E-04  7.4273598E-04   204.4614      0.6665679    
  7.4273598E-04  7.8081700E-04   173.9812      0.6950005    
  7.8081700E-04  8.2085002E-04   142.3777      0.7119523    
  8.2085002E-04  8.6293602E-04   127.6991      0.7349592    
  8.6293602E-04  9.0717903E-04   114.5872      0.6968729    
  9.0717903E-04  9.5369201E-04   102.4684      0.6784131    
  9.5369201E-04  9.6163998E-04   93.95095       1.736059    
  9.6163998E-04  9.7783399E-04   90.18610       1.180925    
  9.7783399E-04  1.0025901E-03   88.08796      0.9934447    
  1.0025901E-03  1.0539900E-03   84.30074      0.7093518    
  1.0539900E-03  1.1080300E-03   82.69080      0.7025965    
  1.1080300E-03  1.1648400E-03   76.13526      0.6789351    
  1.1648400E-03  1.1943300E-03   72.96482      0.9684044    
  1.1943300E-03  1.2245600E-03   75.83710      0.9453822    
  1.2245600E-03  1.2873500E-03   73.46342      0.6962660    
  1.2873500E-03  1.3533500E-03   71.51580      0.6862074    
  1.3533500E-03  1.4227401E-03   72.28683      0.6948946    
  1.4227401E-03  1.4956900E-03   70.41891      0.6965236    
  1.4956900E-03  1.5335500E-03   69.78571      0.9238958    
  1.5335500E-03  1.5723699E-03   69.46659      0.9569294    
  1.5723699E-03  1.6121800E-03   70.39782      0.9674419    
  1.6121800E-03  1.6529900E-03   69.31015      0.9602658    
  1.6529900E-03  1.7377400E-03   67.71476      0.7025487    
  1.7377400E-03  1.8268300E-03   65.44827      0.6866859    
  1.8268300E-03  1.8730800E-03   64.86295      0.9512870    
  1.8730800E-03  1.9205000E-03   63.37581      0.9695622    
  1.9205000E-03  1.9691200E-03   61.26799       1.023205    
  1.9691200E-03  2.0189700E-03   60.89549      0.9734725    
  2.0189700E-03  2.1224800E-03   58.68621      0.7121785    
  2.1224800E-03  2.2313001E-03   55.76366      0.7475489    
  2.2313001E-03  2.2688799E-03   54.91975       1.247730    
  2.2688799E-03  2.3068599E-03   52.90413       1.307876    
  2.3068599E-03  2.3457000E-03   53.03012       1.264461    
  2.3457000E-03  2.3652499E-03   52.48246       1.787606    
  2.3652499E-03  2.3852000E-03   54.22196       1.716471    
  2.3852000E-03  2.4251300E-03   51.73073       1.233966    
  2.4251300E-03  2.4659701E-03   51.89795       1.333326    
  2.4659701E-03  2.5923999E-03   45.54713      0.8056871    
  2.5923999E-03  2.7253199E-03   43.08954      0.7664649    
  2.7253199E-03  2.8650500E-03   39.09113      0.7566565    
  2.8650500E-03  3.0119400E-03   36.84364      0.8195934    
  3.0119400E-03  3.0881900E-03   35.43814       1.129437    
  3.0881900E-03  3.1663701E-03   34.75158       1.186608    
  3.1663701E-03  3.2465300E-03   32.00814       1.173876    
  3.2465300E-03  3.3287101E-03   30.66837       1.176665    
  3.3287101E-03  3.4993801E-03   29.34286      0.8440440    
  3.4993801E-03  3.6787901E-03   28.20851      0.8319516    
  3.6787901E-03  3.8674099E-03   26.33803      0.8848709    
  3.8674099E-03  4.0656999E-03   25.67303      0.8735266    
  4.0656999E-03  4.2741499E-03   24.22139      0.8352058    
  4.2741499E-03  4.4932901E-03   22.02197      0.8994674    
  4.4932901E-03  4.6070400E-03   21.62825       1.255484    
  4.6070400E-03  4.7236700E-03   21.47365       1.230744    
  4.7236700E-03  4.8432499E-03   20.63592       1.215195    
  4.8432499E-03  4.9658502E-03   19.67136       1.209287    
  4.9658502E-03  5.2204598E-03   18.63762      0.9373677    
  5.2204598E-03  5.4881200E-03   17.53688      0.9204065    
  5.4881200E-03  5.7695000E-03   16.70275      0.9134780    
  5.7695000E-03  5.9155500E-03   15.77950       1.310841    
  5.9155500E-03  6.0653100E-03   14.93069       1.300133    
  6.0653100E-03  6.2188501E-03   14.70967       1.326171    
  6.2188501E-03  6.3762800E-03   14.71971       1.280832    
  6.3762800E-03  6.5377001E-03   13.31704       1.398474    
  6.5377001E-03  6.5923799E-03   13.13516       2.379173    
  6.5923799E-03  6.6475999E-03   12.66690       2.414106    
  6.6475999E-03  6.7031998E-03   13.20922       2.416549    
  6.7031998E-03  6.8728901E-03   12.23903       1.464536    
  6.8728901E-03  7.0468802E-03   11.91499       1.372286    
  7.0468802E-03  7.2252699E-03   11.77703       1.477994    
  7.2252699E-03  7.4081798E-03   10.87676       1.390493    
  7.4081798E-03  7.5957198E-03   10.96380       1.421804    
  7.5957198E-03  7.7880099E-03   10.32987       1.485147    
  7.7880099E-03  7.9851598E-03   9.914341       1.531649    
  7.9851598E-03  8.1873098E-03   9.704021       1.435034    
  8.1873098E-03  8.3945701E-03   9.314495       1.452507    
  8.3945701E-03  8.6070802E-03   9.280880       1.455905    
  8.6070802E-03  8.8249696E-03   8.645150       1.566645    
  8.8249696E-03  9.0483697E-03   8.527018       1.435093    
  9.0483697E-03  9.2774397E-03   8.192122       1.583099    
  9.2774397E-03  9.5122904E-03   7.834805       1.571637    
  9.5122904E-03  9.7530996E-03   7.550643       1.533494    
  9.7530996E-03  9.9999998E-03   7.174160       1.589449    
  9.9999998E-03  1.0253200E-02   7.147043       1.518204    
  1.0253200E-02  1.0512700E-02   6.868523       1.530168    
  1.0512700E-02  1.0778800E-02   6.948387       1.514528    
  1.0778800E-02  1.1051700E-02   6.351279       1.600033    
  1.1051700E-02  1.1331500E-02   6.264542       1.620384    
  1.1331500E-02  1.1618300E-02   5.952577       1.581112    
  1.1618300E-02  1.1912500E-02   5.635239       1.634294    
  1.1912500E-02  1.2214000E-02   5.867438       1.589904    
  1.2214000E-02  1.2523200E-02   5.635437       1.665682    
  1.2523200E-02  1.2840200E-02   5.505687       1.632085    
  1.2840200E-02  1.3165300E-02   5.251727       1.583486    
  1.3165300E-02  1.3498600E-02   5.085940       1.574586    
  1.3498600E-02  1.3840300E-02   4.911098       1.651329    
  1.3840300E-02  1.4190700E-02   4.879915       1.647177    
  1.4190700E-02  1.4549900E-02   4.704926       1.694015    
  1.4549900E-02  1.4918300E-02   4.541256       1.669421    
  1.4918300E-02  1.5295900E-02   4.502421       1.661174    
  1.5295900E-02  1.5683100E-02   4.119224       1.733935    
  1.5683100E-02  1.6080100E-02   3.968716       1.659603    
  1.6080100E-02  1.6487200E-02   3.852400       1.724169    
  1.6487200E-02  1.6904600E-02   3.859768       1.687823    
  1.6904600E-02  1.7332500E-02   3.666280       1.796473    
  1.7332500E-02  1.7771300E-02   3.625703       1.808970    
  1.7771300E-02  1.8221200E-02   3.429663       1.712654    
  1.8221200E-02  1.8682500E-02   3.273584       1.800089    
  1.8682500E-02  1.9155400E-02   3.234994       1.692511    
  1.9155400E-02  1.9640300E-02   3.015116       1.745289    
  1.9640300E-02  2.0000000E-02   3.032764       2.025000    
