 # Detector n:  1  HeIInflux 
 # N. of energy intervals 260
  1.0000100E-14  2.0000000E-13  5.7253708E+10   17.65489    
  2.0000000E-13  2.9297300E-13  1.1523672E+11   15.10607    
  2.9297300E-13  4.2916701E-13  2.0396219E+11   14.99221    
  4.2916701E-13  6.2867300E-13  2.2896530E+11   9.901292    
  6.2867300E-13  9.2092198E-13  2.9678197E+11   5.832393    
  9.2092198E-13  1.3490300E-12  3.9111511E+11   5.463626    
  1.3490300E-12  1.9761499E-12  5.3690771E+11   3.402011    
  1.9761499E-12  2.8947901E-12  6.5617533E+11   2.640883    
  2.8947901E-12  4.2404799E-12  7.5832151E+11   1.618094    
  4.2404799E-12  6.2117499E-12  8.5065407E+11   1.729425    
  6.2117499E-12  9.0993801E-12  8.9374766E+11   1.297472    
  9.0993801E-12  1.3329400E-11  7.7462733E+11   1.233696    
  1.3329400E-11  1.9525799E-11  5.9745645E+11   1.198377    
  1.9525799E-11  2.8602700E-11  3.5949743E+11   1.279450    
  2.8602700E-11  4.1899099E-11  1.6131703E+11   1.644166    
  4.1899099E-11  6.1376598E-11  6.2685442E+10   1.747464    
  6.1376598E-11  8.9908601E-11  2.6110542E+10   2.041626    
  8.9908601E-11  1.3170399E-10  1.2127943E+10   2.121814    
  1.3170399E-10  1.9292901E-10  6.0358113E+09   1.468573    
  1.9292901E-10  2.8261499E-10  3.6549755E+09   1.170638    
  2.8261499E-10  4.1399401E-10  2.2910500E+09   1.177580    
  4.1399401E-10  5.3157900E-10  1.6682455E+09   1.556043    
  5.3157900E-10  6.2506200E-10  1.3248301E+09   1.557894    
  6.2506200E-10  6.8256001E-10  1.1240141E+09   2.499963    
  6.8256001E-10  8.3368101E-10  9.8433875E+08   1.901893    
  8.3368101E-10  8.7642499E-10  8.4795706E+08   2.397426    
  8.7642499E-10  1.1253500E-09  7.3503059E+08   1.298011    
  1.1253500E-09  1.4449800E-09  5.7922208E+08  0.8868062    
  1.4449800E-09  1.8553900E-09  4.3750544E+08   1.211456    
  1.8553900E-09  2.3823701E-09  3.3819920E+08   1.115991    
  2.3823701E-09  3.0590199E-09  2.6219776E+08   1.222470    
  3.0590199E-09  3.9278598E-09  2.0164363E+08   1.142412    
  3.9278598E-09  5.0434799E-09  1.5563624E+08   1.136777    
  5.0434799E-09  6.4759500E-09  1.2359982E+08   1.191708    
  6.4759500E-09  8.3152898E-09  9.3305576E+07   1.028255    
  8.3152898E-09  1.0677000E-08  7.0168576E+07   1.106648    
  1.0677000E-08  1.3709600E-08  5.5892440E+07   1.423875    
  1.3709600E-08  1.7603501E-08  4.1978192E+07   1.528644    
  1.7603501E-08  2.2603301E-08  3.3214120E+07  0.8441430    
  2.2603301E-08  2.9023200E-08  2.5860876E+07   1.195221    
  2.9023200E-08  3.7266499E-08  2.0032938E+07   1.293312    
  3.7266499E-08  4.7851199E-08  1.5381971E+07   1.125033    
  4.7851199E-08  6.1442101E-08  1.1722277E+07   1.466181    
  6.1442101E-08  7.8893301E-08   9256906.       1.419530    
  7.8893301E-08  1.0130100E-07   7072241.       1.172040    
  1.0130100E-07  1.3007300E-07   5352299.       1.059922    
  1.3007300E-07  1.6701701E-07   4100395.       1.385719    
  1.6701701E-07  2.1445400E-07   3104670.       1.176849    
  2.1445400E-07  2.7536399E-07   2468937.       1.347614    
  2.7536399E-07  3.5357499E-07   1793095.       1.431457    
  3.5357499E-07  4.5399901E-07   1410081.       1.445673    
  4.5399901E-07  5.8294700E-07   1072591.       1.491325    
  5.8294700E-07  7.4851800E-07   840340.9       1.794383    
  7.4851800E-07  9.6111603E-07   630342.1       1.778608    
  9.6111603E-07  1.2341000E-06   472307.8       1.636151    
  1.2341000E-06  1.3638900E-06   401152.8       1.738984    
  1.3638900E-06  1.5073300E-06   351820.2       2.428358    
  1.5073300E-06  1.5846100E-06   323179.2       3.238359    
  1.5846100E-06  1.6658601E-06   298599.7       3.951527    
  1.6658601E-06  1.8410600E-06   279917.7       1.980657    
  1.8410600E-06  2.0346799E-06   255408.1       2.452452    
  2.0346799E-06  2.2486699E-06   231402.1       1.710947    
  2.2486699E-06  2.4851699E-06   197068.2       2.417904    
  2.4851699E-06  2.6125899E-06   191074.7       3.337132    
  2.6125899E-06  2.7465401E-06   181050.6       2.521220    
  2.7465401E-06  2.8634900E-06   164070.6       3.882017    
  2.8634900E-06  3.0353899E-06   166267.2       3.297743    
  3.0353899E-06  3.3546301E-06   144506.5       1.963225    
  3.3546301E-06  3.7074401E-06   131049.4       2.324652    
  3.7074401E-06  4.0973500E-06   111022.5       3.310619    
  4.0973500E-06  4.3074201E-06   108481.0       2.540553    
  4.3074201E-06  4.5282700E-06   101934.5       3.317932    
  4.5282700E-06  5.0045101E-06   90585.27       2.484107    
  5.0045101E-06  5.5308401E-06   85366.83       2.639079    
  5.5308401E-06  6.2672698E-06   62058.57       2.705164    
  6.2672698E-06  7.1017398E-06   60378.24       1.455362    
  7.1017398E-06  8.0473301E-06   54042.93       2.019215    
  8.0473301E-06  9.1188203E-06   46578.14       2.393409    
  9.1188203E-06  1.0333000E-05   39663.94       2.895329    
  1.0333000E-05  1.1708800E-05   32673.73       2.546082    
  1.1708800E-05  1.3267800E-05   30196.07       1.401981    
  1.3267800E-05  1.5034400E-05   25197.80       2.696427    
  1.5034400E-05  1.7036200E-05   21755.47       2.322930    
  1.7036200E-05  1.9304500E-05   18701.92       2.039361    
  1.9304500E-05  2.1334799E-05   15881.39       3.122488    
  2.1334799E-05  2.1874899E-05   14658.44       4.827280    
  2.1874899E-05  2.3578599E-05   13690.84       2.453972    
  2.3578599E-05  2.4175501E-05   12191.45       4.613289    
  2.4175501E-05  2.4787500E-05   11450.37       6.094253    
  2.4787500E-05  2.6058400E-05   12495.23       4.417270    
  2.6058400E-05  2.8087899E-05   11278.78       3.722498    
  2.8087899E-05  3.1827800E-05   12103.14       2.491756    
  3.1827800E-05  3.4306700E-05   8012.838       3.200576    
  3.4306700E-05  3.5175199E-05   3889.603       6.884268    
  3.5175199E-05  3.6065601E-05   3643.203       10.37644    
  3.6065601E-05  4.0867701E-05   5207.567       2.618502    
  4.0867701E-05  4.6309200E-05   5744.970       3.063683    
  4.6309200E-05  5.2475199E-05   4988.612       2.305511    
  5.2475199E-05  5.6562199E-05   4267.169       4.200204    
  5.6562199E-05  5.9462200E-05   4295.336       5.011227    
  5.9462200E-05  6.2510902E-05   4008.133       3.441212    
  6.2510902E-05  6.7379500E-05   3797.960       3.701514    
  6.7379500E-05  7.6350902E-05   3658.414       2.179428    
  7.6350902E-05  8.6516899E-05   2671.079       1.922855    
  8.6516899E-05  9.8036500E-05   1466.819       4.213205    
  9.8036500E-05  1.1109000E-04   1943.760       3.335529    
  1.1109000E-04  1.1678600E-04   1737.017       5.424123    
  1.1678600E-04  1.2277300E-04   1264.664       4.712721    
  1.2277300E-04  1.2906799E-04   1734.237       5.230389    
  1.2906799E-04  1.3568600E-04   1817.460       4.218488    
  1.3568600E-04  1.4264201E-04   1310.970       4.918642    
  1.4264201E-04  1.4995600E-04   991.2889       5.743698    
  1.4995600E-04  1.5764400E-04   835.8104       6.241240    
  1.5764400E-04  1.6163501E-04   827.7234       9.762775    
  1.6163501E-04  1.6572700E-04   835.4679       7.978477    
  1.6572700E-04  1.6992200E-04   829.6006       9.078006    
  1.6992200E-04  1.7422400E-04   973.4983       11.00461    
  1.7422400E-04  1.8315599E-04   918.1826       5.360901    
  1.8315599E-04  1.9254700E-04   992.3004       5.183308    
  1.9254700E-04  2.0241900E-04   766.8398       5.351689    
  2.0241900E-04  2.1279699E-04   641.3016       4.158597    
  2.1279699E-04  2.2370800E-04   715.4050       4.860812    
  2.2370800E-04  2.3517800E-04   584.3625       6.433300    
  2.3517800E-04  2.4723500E-04   600.2391       5.014069    
  2.4723500E-04  2.5991100E-04   598.4476       6.420810    
  2.5991100E-04  2.7323700E-04   650.5278       4.905070    
  2.7323700E-04  2.8015400E-04   570.0101       7.060355    
  2.8015400E-04  2.8724599E-04   384.0719       9.435492    
  2.8724599E-04  2.9451799E-04   429.0223       9.121348    
  2.9451799E-04  3.0197401E-04   407.5965       10.17440    
  3.0197401E-04  3.0961799E-04   442.8733       10.64711    
  3.0961799E-04  3.1745600E-04   360.0960       8.619329    
  3.1745600E-04  3.3373301E-04   410.3750       6.714355    
  3.3373301E-04  3.5084400E-04   375.5043       6.759790    
  3.5084400E-04  3.6883200E-04   335.1424       5.822204    
  3.6883200E-04  3.8774201E-04   300.7176       5.104680    
  3.8774201E-04  4.0762199E-04   316.2120       5.696260    
  4.0762199E-04  4.2852099E-04   257.5595       5.273306    
  4.2852099E-04  4.5049199E-04   218.5438       6.951169    
  4.5049199E-04  4.7358900E-04   197.1212       5.392923    
  4.7358900E-04  4.9787102E-04   185.2341       9.039283    
  4.9787102E-04  5.1047403E-04   188.2625       7.409235    
  5.1047403E-04  5.2339700E-04   177.7368       7.949813    
  5.2339700E-04  5.3664698E-04   143.4367       8.000516    
  5.3664698E-04  5.5023201E-04   138.9095       10.39187    
  5.5023201E-04  5.7844300E-04   139.4946       5.254933    
  5.7844300E-04  6.0810102E-04   136.8208       8.034642    
  6.0810102E-04  6.3927902E-04   111.2519       7.377747    
  6.3927902E-04  6.7205500E-04   100.3035       9.569343    
  6.7205500E-04  7.0651202E-04   98.55923       6.754004    
  7.0651202E-04  7.4273598E-04   83.27898       7.847136    
  7.4273598E-04  7.8081700E-04   71.09539       8.134633    
  7.8081700E-04  8.2085002E-04   51.94873       6.488831    
  8.2085002E-04  8.6293602E-04   49.14898       8.770667    
  8.6293602E-04  9.0717903E-04   57.64484       8.001902    
  9.0717903E-04  9.5369201E-04   44.95148       9.473031    
  9.5369201E-04  9.6163998E-04   36.99125       20.26204    
  9.6163998E-04  9.7783399E-04   44.35653       17.71102    
  9.7783399E-04  1.0025901E-03   37.14277       9.895859    
  1.0025901E-03  1.0539900E-03   30.79826       8.524096    
  1.0539900E-03  1.1080300E-03   34.57809       4.832457    
  1.1080300E-03  1.1648400E-03   28.53771       6.773554    
  1.1648400E-03  1.1943300E-03   27.00505       9.822775    
  1.1943300E-03  1.2245600E-03   23.74837       14.18964    
  1.2245600E-03  1.2873500E-03   25.37434       7.694374    
  1.2873500E-03  1.3533500E-03   26.86925       9.419948    
  1.3533500E-03  1.4227401E-03   22.69227       10.15297    
  1.4227401E-03  1.4956900E-03   20.69540       8.905403    
  1.4956900E-03  1.5335500E-03   23.03417       10.15164    
  1.5335500E-03  1.5723699E-03   20.23806       13.66846    
  1.5723699E-03  1.6121800E-03   18.33047       13.98328    
  1.6121800E-03  1.6529900E-03   18.20509       15.10569    
  1.6529900E-03  1.7377400E-03   20.37804       9.779054    
  1.7377400E-03  1.8268300E-03   18.41136       11.09880    
  1.8268300E-03  1.8730800E-03   23.35957       11.93885    
  1.8730800E-03  1.9205000E-03   22.31409       17.93210    
  1.9205000E-03  1.9691200E-03   16.54717       11.17928    
  1.9691200E-03  2.0189700E-03   14.20341       17.94524    
  2.0189700E-03  2.1224800E-03   10.30446       10.60432    
  2.1224800E-03  2.2313001E-03   12.88271       8.767872    
  2.2313001E-03  2.2688799E-03   13.59827       17.91010    
  2.2688799E-03  2.3068599E-03   11.35454       20.09801    
  2.3068599E-03  2.3457000E-03   10.07707       20.15931    
  2.3457000E-03  2.3652499E-03   8.956669       25.41015    
  2.3652499E-03  2.3852000E-03   9.165973       39.81719    
  2.3852000E-03  2.4251300E-03   12.02944       20.80152    
  2.4251300E-03  2.4659701E-03   9.132066       16.14117    
  2.4659701E-03  2.5923999E-03   7.793865       12.25849    
  2.5923999E-03  2.7253199E-03   9.705588       11.44579    
  2.7253199E-03  2.8650500E-03   5.891818       16.12062    
  2.8650500E-03  3.0119400E-03   5.875681       17.38081    
  3.0119400E-03  3.0881900E-03   7.376566       16.48011    
  3.0881900E-03  3.1663701E-03   4.856277       18.75126    
  3.1663701E-03  3.2465300E-03   9.244430       16.37020    
  3.2465300E-03  3.3287101E-03   6.007637       23.05931    
  3.3287101E-03  3.4993801E-03   5.255095       18.73552    
  3.4993801E-03  3.6787901E-03   5.366752       15.72452    
  3.6787901E-03  3.8674099E-03   5.156471       13.68222    
  3.8674099E-03  4.0656999E-03   4.566601       19.27789    
  4.0656999E-03  4.2741499E-03   4.725981       18.88161    
  4.2741499E-03  4.4932901E-03   5.257924       11.85864    
  4.4932901E-03  4.6070400E-03   6.671030       16.14678    
  4.6070400E-03  4.7236700E-03   4.372556       24.07103    
  4.7236700E-03  4.8432499E-03   4.609796       14.57483    
  4.8432499E-03  4.9658502E-03   3.593432       18.32757    
  4.9658502E-03  5.2204598E-03   3.275276       14.38631    
  5.2204598E-03  5.4881200E-03   4.720254       11.03956    
  5.4881200E-03  5.7695000E-03   3.344453       16.05489    
  5.7695000E-03  5.9155500E-03   3.445610       18.18317    
  5.9155500E-03  6.0653100E-03   2.843475       21.97600    
  6.0653100E-03  6.2188501E-03   3.160426       24.86360    
  6.2188501E-03  6.3762800E-03   2.903656       26.30116    
  6.3762800E-03  6.5377001E-03   2.842780       17.99949    
  6.5377001E-03  6.5923799E-03   2.884721       33.13760    
  6.5923799E-03  6.6475999E-03   4.451843       25.87684    
  6.6475999E-03  6.7031998E-03   1.287230       48.29076    
  6.7031998E-03  6.8728901E-03   2.668593       17.81307    
  6.8728901E-03  7.0468802E-03   2.946032       17.37136    
  7.0468802E-03  7.2252699E-03   2.886559       20.89260    
  7.2252699E-03  7.4081798E-03   2.384412       24.32666    
  7.4081798E-03  7.5957198E-03   1.587987       23.96867    
  7.5957198E-03  7.7880099E-03   1.659336       23.21312    
  7.7880099E-03  7.9851598E-03   2.506856       19.24796    
  7.9851598E-03  8.1873098E-03   2.231057       23.79630    
  8.1873098E-03  8.3945701E-03   2.215966       17.44940    
  8.3945701E-03  8.6070802E-03   1.974708       22.32461    
  8.6070802E-03  8.8249696E-03   1.586941       21.52331    
  8.8249696E-03  9.0483697E-03   1.208756       26.26336    
  9.0483697E-03  9.2774397E-03   1.157571       22.94996    
  9.2774397E-03  9.5122904E-03   2.061950       24.43618    
  9.5122904E-03  9.7530996E-03   1.672733       24.21340    
  9.7530996E-03  9.9999998E-03   2.866231       22.41846    
  9.9999998E-03  1.0253200E-02   1.807582       26.80232    
  1.0253200E-02  1.0512700E-02   2.755928       14.08008    
  1.0512700E-02  1.0778800E-02   1.587398       28.84967    
  1.0778800E-02  1.1051700E-02   1.478356       19.36314    
  1.1051700E-02  1.1331500E-02   1.632543       27.56109    
  1.1331500E-02  1.1618300E-02  0.9046621       31.21341    
  1.1618300E-02  1.1912500E-02   1.178543       32.23862    
  1.1912500E-02  1.2214000E-02   1.791076       23.90693    
  1.2214000E-02  1.2523200E-02   1.175179       27.39847    
  1.2523200E-02  1.2840200E-02   1.185650       23.49265    
  1.2840200E-02  1.3165300E-02  0.8016886       31.39715    
  1.3165300E-02  1.3498600E-02   1.589122       18.94137    
  1.3498600E-02  1.3840300E-02   1.098418       20.79168    
  1.3840300E-02  1.4190700E-02   1.447318       17.74736    
  1.4190700E-02  1.4549900E-02  0.9985088       23.17703    
  1.4549900E-02  1.4918300E-02   1.262195       18.11703    
  1.4918300E-02  1.5295900E-02   1.097338       25.95961    
  1.5295900E-02  1.5683100E-02  0.4103125       26.18548    
  1.5683100E-02  1.6080100E-02  0.7207662       30.27012    
  1.6080100E-02  1.6487200E-02  0.7042475       30.63493    
  1.6487200E-02  1.6904600E-02  0.9128197       26.43790    
  1.6904600E-02  1.7332500E-02  0.4945116       38.17706    
  1.7332500E-02  1.7771300E-02  0.4285465       29.27120    
  1.7771300E-02  1.8221200E-02  0.5536056       27.96590    
  1.8221200E-02  1.8682500E-02  0.6954819       34.16866    
  1.8682500E-02  1.9155400E-02  0.3359343       33.09822    
  1.9155400E-02  1.9640300E-02  0.3572524       35.14442    
  1.9640300E-02  2.0000000E-02  0.6989909       54.11507    
