 # Detector n:  1  HeIInflux 
 # N. of energy intervals 260
  1.0000100E-14  2.0000000E-13  3.5427369E+10   15.19074    
  2.0000000E-13  2.9297300E-13  8.0902463E+10   16.05091    
  2.9297300E-13  4.2916701E-13  1.1758643E+11   6.614360    
  4.2916701E-13  6.2867300E-13  1.5458877E+11   7.376006    
  6.2867300E-13  9.2092198E-13  2.6388051E+11   4.775601    
  9.2092198E-13  1.3490300E-12  3.3050870E+11   4.612298    
  1.3490300E-12  1.9761499E-12  4.6360222E+11   2.315007    
  1.9761499E-12  2.8947901E-12  5.7261687E+11   1.454298    
  2.8947901E-12  4.2404799E-12  6.8531316E+11   1.134614    
  4.2404799E-12  6.2117499E-12  8.0402874E+11   1.284176    
  6.2117499E-12  9.0993801E-12  8.2011691E+11   1.081266    
  9.0993801E-12  1.3329400E-11  7.6453596E+11   1.669224    
  1.3329400E-11  1.9525799E-11  6.1358886E+11   1.079365    
  1.9525799E-11  2.8602700E-11  4.0549509E+11   1.024816    
  2.8602700E-11  4.1899099E-11  2.1470813E+11   1.201032    
  4.1899099E-11  6.1376598E-11  1.0264687E+11  0.9677176    
  6.1376598E-11  8.9908601E-11  4.5957800E+10   1.571604    
  8.9908601E-11  1.3170399E-10  2.0067815E+10   1.811965    
  1.3170399E-10  1.9292901E-10  9.7430723E+09  0.8931779    
  1.9292901E-10  2.8261499E-10  5.5543690E+09  0.7277987    
  2.8261499E-10  4.1399401E-10  3.5537032E+09  0.6240690    
  4.1399401E-10  5.3157900E-10  2.6276652E+09  0.7726913    
  5.3157900E-10  6.2506200E-10  2.0863763E+09   1.137814    
  6.2506200E-10  6.8256001E-10  1.8259049E+09   1.372406    
  6.8256001E-10  8.3368101E-10  1.6096499E+09   1.020591    
  8.3368101E-10  8.7642499E-10  1.4632031E+09   2.197907    
  8.7642499E-10  1.1253500E-09  1.2163130E+09  0.8773098    
  1.1253500E-09  1.4449800E-09  9.5290214E+08  0.8955051    
  1.4449800E-09  1.8553900E-09  7.4287482E+08  0.6008362    
  1.8553900E-09  2.3823701E-09  5.8355578E+08  0.6718190    
  2.3823701E-09  3.0590199E-09  4.5905398E+08  0.7506764    
  3.0590199E-09  3.9278598E-09  3.6003411E+08  0.7611934    
  3.9278598E-09  5.0434799E-09  2.8558106E+08  0.7384534    
  5.0434799E-09  6.4759500E-09  2.2342501E+08  0.6277919    
  6.4759500E-09  8.3152898E-09  1.7996418E+08  0.8022232    
  8.3152898E-09  1.0677000E-08  1.4238307E+08  0.5036959    
  1.0677000E-08  1.3709600E-08  1.1194094E+08  0.7109568    
  1.3709600E-08  1.7603501E-08  8.8381728E+07  0.7575663    
  1.7603501E-08  2.2603301E-08  7.0676944E+07  0.7796280    
  2.2603301E-08  2.9023200E-08  5.5605012E+07  0.5484193    
  2.9023200E-08  3.7266499E-08  4.4387664E+07  0.6748486    
  3.7266499E-08  4.7851199E-08  3.5191196E+07  0.7575610    
  4.7851199E-08  6.1442101E-08  2.7633544E+07  0.6698255    
  6.1442101E-08  7.8893301E-08  2.1921862E+07  0.5906516    
  7.8893301E-08  1.0130100E-07  1.7480860E+07  0.5754486    
  1.0130100E-07  1.3007300E-07  1.3970994E+07  0.5068867    
  1.3007300E-07  1.6701701E-07  1.0958781E+07  0.5897079    
  1.6701701E-07  2.1445400E-07   8754051.      0.4744978    
  2.1445400E-07  2.7536399E-07   6957809.      0.7076653    
  2.7536399E-07  3.5357499E-07   5444047.      0.5619361    
  3.5357499E-07  4.5399901E-07   4309564.      0.4487143    
  4.5399901E-07  5.8294700E-07   3458580.      0.6278095    
  5.8294700E-07  7.4851800E-07   2711353.      0.5482504    
  7.4851800E-07  9.6111603E-07   2166428.      0.6712339    
  9.6111603E-07  1.2341000E-06   1723459.      0.7221216    
  1.2341000E-06  1.3638900E-06   1453871.      0.7119175    
  1.3638900E-06  1.5073300E-06   1361912.      0.8816131    
  1.5073300E-06  1.5846100E-06   1275199.       1.827837    
  1.5846100E-06  1.6658601E-06   1188390.      0.9638374    
  1.6658601E-06  1.8410600E-06   1094737.      0.7751987    
  1.8410600E-06  2.0346799E-06   1001532.      0.7002599    
  2.0346799E-06  2.2486699E-06   922020.1      0.9567293    
  2.2486699E-06  2.4851699E-06   830199.0      0.6618716    
  2.4851699E-06  2.6125899E-06   781824.3      0.7131963    
  2.6125899E-06  2.7465401E-06   749646.4       1.019203    
  2.7465401E-06  2.8634900E-06   714326.2       1.478978    
  2.8634900E-06  3.0353899E-06   688597.2       1.317624    
  3.0353899E-06  3.3546301E-06   636841.7      0.8044649    
  3.3546301E-06  3.7074401E-06   579649.5       1.068660    
  3.7074401E-06  4.0973500E-06   533002.4       1.020270    
  4.0973500E-06  4.3074201E-06   491977.1       1.021233    
  4.3074201E-06  4.5282700E-06   471820.5       1.093520    
  4.5282700E-06  5.0045101E-06   439362.0      0.8805115    
  5.0045101E-06  5.5308401E-06   449392.5      0.5526625    
  5.5308401E-06  6.2672698E-06   288472.7      0.9192792    
  6.2672698E-06  7.1017398E-06   317045.2      0.8771097    
  7.1017398E-06  8.0473301E-06   283794.8      0.9414302    
  8.0473301E-06  9.1188203E-06   251119.7      0.6539010    
  9.1188203E-06  1.0333000E-05   220233.8      0.9051529    
  1.0333000E-05  1.1708800E-05   197255.2      0.7814732    
  1.1708800E-05  1.3267800E-05   176454.7      0.8913603    
  1.3267800E-05  1.5034400E-05   155518.2      0.8452747    
  1.5034400E-05  1.7036200E-05   140153.0      0.7857578    
  1.7036200E-05  1.9304500E-05   123994.7      0.7915433    
  1.9304500E-05  2.1334799E-05   111789.5      0.7507441    
  2.1334799E-05  2.1874899E-05   107530.3       1.449965    
  2.1874899E-05  2.3578599E-05   100657.9      0.7244276    
  2.3578599E-05  2.4175501E-05   98837.53       1.505974    
  2.4175501E-05  2.4787500E-05   94948.77       1.463702    
  2.4787500E-05  2.6058400E-05   95085.75       1.322005    
  2.6058400E-05  2.8087899E-05   99150.62      0.7315500    
  2.8087899E-05  3.1827800E-05   105808.5      0.4773988    
  3.1827800E-05  3.4306700E-05   56464.35       1.361106    
  3.4306700E-05  3.5175199E-05   27005.37       2.483349    
  3.5175199E-05  3.6065601E-05   25731.94       2.388001    
  3.6065601E-05  4.0867701E-05   35133.58       1.083828    
  4.0867701E-05  4.6309200E-05   43848.64      0.7817101    
  4.6309200E-05  5.2475199E-05   42043.38      0.8622915    
  5.2475199E-05  5.6562199E-05   40852.86      0.9227424    
  5.6562199E-05  5.9462200E-05   38942.52       1.091688    
  5.9462200E-05  6.2510902E-05   39287.52       1.194074    
  6.2510902E-05  6.7379500E-05   37306.41      0.8401932    
  6.7379500E-05  7.6350902E-05   38223.91      0.6232235    
  7.6350902E-05  8.6516899E-05   24026.62      0.9406745    
  8.6516899E-05  9.8036500E-05   13058.68       1.032669    
  9.8036500E-05  1.1109000E-04   18019.97      0.9115045    
  1.1109000E-04  1.1678600E-04   19283.37      0.8978637    
  1.1678600E-04  1.2277300E-04   11937.21       1.606746    
  1.2277300E-04  1.2906799E-04   20891.27      0.8590930    
  1.2906799E-04  1.3568600E-04   21119.15      0.6235791    
  1.3568600E-04  1.4264201E-04   13532.55       1.724615    
  1.4264201E-04  1.4995600E-04   9286.552       1.687387    
  1.4995600E-04  1.5764400E-04   8674.034       2.033662    
  1.5764400E-04  1.6163501E-04   6669.508       2.740949    
  1.6163501E-04  1.6572700E-04   8947.676       2.310744    
  1.6572700E-04  1.6992200E-04   9455.571       1.447308    
  1.6992200E-04  1.7422400E-04   9536.254       1.740942    
  1.7422400E-04  1.8315599E-04   10478.06       1.035156    
  1.8315599E-04  1.9254700E-04   10908.15       1.330430    
  1.9254700E-04  2.0241900E-04   9586.443       1.283267    
  2.0241900E-04  2.1279699E-04   6744.330       1.609740    
  2.1279699E-04  2.2370800E-04   7364.960       1.710057    
  2.2370800E-04  2.3517800E-04   7582.748       1.753608    
  2.3517800E-04  2.4723500E-04   7950.278      0.9841063    
  2.4723500E-04  2.5991100E-04   8041.834       1.349410    
  2.5991100E-04  2.7323700E-04   9222.629       1.414423    
  2.7323700E-04  2.8015400E-04   7256.569       1.415690    
  2.8015400E-04  2.8724599E-04   5239.018       1.722413    
  2.8724599E-04  2.9451799E-04   5320.627       1.880075    
  2.9451799E-04  3.0197401E-04   5612.120       1.683810    
  3.0197401E-04  3.0961799E-04   5388.420       1.936352    
  3.0961799E-04  3.1745600E-04   4946.167       1.465777    
  3.1745600E-04  3.3373301E-04   5398.277       1.904664    
  3.3373301E-04  3.5084400E-04   5860.062       1.135952    
  3.5084400E-04  3.6883200E-04   4388.241       1.895914    
  3.6883200E-04  3.8774201E-04   4237.940       1.058899    
  3.8774201E-04  4.0762199E-04   4342.278       1.473987    
  4.0762199E-04  4.2852099E-04   3141.466       1.650604    
  4.2852099E-04  4.5049199E-04   2984.518       1.590973    
  4.5049199E-04  4.7358900E-04   3141.477      0.9783249    
  4.7358900E-04  4.9787102E-04   3152.456       1.148021    
  4.9787102E-04  5.1047403E-04   3428.922       1.811262    
  5.1047403E-04  5.2339700E-04   3219.051       1.950009    
  5.2339700E-04  5.3664698E-04   2229.727       1.953434    
  5.3664698E-04  5.5023201E-04   2611.589       1.177995    
  5.5023201E-04  5.7844300E-04   2415.247       1.018652    
  5.7844300E-04  6.0810102E-04   2325.874       1.285460    
  6.0810102E-04  6.3927902E-04   2114.101       1.894267    
  6.3927902E-04  6.7205500E-04   1668.582      0.8879341    
  6.7205500E-04  7.0651202E-04   1872.266       1.193848    
  7.0651202E-04  7.4273598E-04   1665.833       1.465886    
  7.4273598E-04  7.8081700E-04   1351.723       1.826010    
  7.8081700E-04  8.2085002E-04   968.1141       1.261019    
  8.2085002E-04  8.6293602E-04   911.5488       1.671970    
  8.6293602E-04  9.0717903E-04   854.5700       1.452477    
  9.0717903E-04  9.5369201E-04   800.3805       1.491764    
  9.5369201E-04  9.6163998E-04   777.3597       4.007914    
  9.6163998E-04  9.7783399E-04   662.6163       2.675961    
  9.7783399E-04  1.0025901E-03   644.1044       2.052231    
  1.0025901E-03  1.0539900E-03   624.5856       1.800368    
  1.0539900E-03  1.1080300E-03   604.3981       1.863034    
  1.1080300E-03  1.1648400E-03   509.5891       1.559720    
  1.1648400E-03  1.1943300E-03   451.1544       2.483240    
  1.1943300E-03  1.2245600E-03   476.5361       2.343321    
  1.2245600E-03  1.2873500E-03   457.8245       1.762527    
  1.2873500E-03  1.3533500E-03   434.6651       1.770559    
  1.3533500E-03  1.4227401E-03   432.6735       1.214373    
  1.4227401E-03  1.4956900E-03   386.9582       1.926936    
  1.4956900E-03  1.5335500E-03   363.2473       3.998039    
  1.5335500E-03  1.5723699E-03   346.7030       3.186250    
  1.5723699E-03  1.6121800E-03   350.0222       3.744901    
  1.6121800E-03  1.6529900E-03   356.3134       2.764529    
  1.6529900E-03  1.7377400E-03   317.1978       1.732039    
  1.7377400E-03  1.8268300E-03   288.8377       2.432482    
  1.8268300E-03  1.8730800E-03   291.3047       2.503256    
  1.8730800E-03  1.9205000E-03   270.6009       3.175152    
  1.9205000E-03  1.9691200E-03   236.5933       3.545608    
  1.9691200E-03  2.0189700E-03   245.6860       3.613659    
  2.0189700E-03  2.1224800E-03   221.3521       1.741554    
  2.1224800E-03  2.2313001E-03   206.2625       1.844979    
  2.2313001E-03  2.2688799E-03   199.9627       3.553602    
  2.2688799E-03  2.3068599E-03   175.9530       4.801965    
  2.3068599E-03  2.3457000E-03   169.3432       3.299050    
  2.3457000E-03  2.3652499E-03   176.1261       4.942133    
  2.3652499E-03  2.3852000E-03   207.4572       8.246560    
  2.3852000E-03  2.4251300E-03   169.9724       4.015591    
  2.4251300E-03  2.4659701E-03   164.2428       4.636941    
  2.4659701E-03  2.5923999E-03   134.5645       2.016953    
  2.5923999E-03  2.7253199E-03   126.7619       3.305407    
  2.7253199E-03  2.8650500E-03   103.8975       2.565411    
  2.8650500E-03  3.0119400E-03   87.62778       3.100129    
  3.0119400E-03  3.0881900E-03   81.64885       4.039034    
  3.0881900E-03  3.1663701E-03   72.66087       3.884168    
  3.1663701E-03  3.2465300E-03   74.69044       4.781039    
  3.2465300E-03  3.3287101E-03   65.76029       4.887668    
  3.3287101E-03  3.4993801E-03   57.09060       2.554778    
  3.4993801E-03  3.6787901E-03   51.15472       4.670057    
  3.6787901E-03  3.8674099E-03   47.26562       3.933475    
  3.8674099E-03  4.0656999E-03   45.48760       3.648654    
  4.0656999E-03  4.2741499E-03   38.05704       3.442465    
  4.2741499E-03  4.4932901E-03   34.66337       3.872793    
  4.4932901E-03  4.6070400E-03   32.37638       5.309054    
  4.6070400E-03  4.7236700E-03   30.39289       5.377868    
  4.7236700E-03  4.8432499E-03   31.34978       7.142640    
  4.8432499E-03  4.9658502E-03   26.61834       5.310153    
  4.9658502E-03  5.2204598E-03   27.08909       4.570202    
  5.2204598E-03  5.4881200E-03   25.55227       4.568931    
  5.4881200E-03  5.7695000E-03   23.13674       4.098552    
  5.7695000E-03  5.9155500E-03   23.39247       7.452660    
  5.9155500E-03  6.0653100E-03   19.43681       7.619151    
  6.0653100E-03  6.2188501E-03   19.67651       6.973206    
  6.2188501E-03  6.3762800E-03   17.55646       6.261394    
  6.3762800E-03  6.5377001E-03   16.74281       5.318748    
  6.5377001E-03  6.5923799E-03   18.70798       8.303816    
  6.5923799E-03  6.6475999E-03   17.72734       8.665728    
  6.6475999E-03  6.7031998E-03   21.49139       7.836073    
  6.7031998E-03  6.8728901E-03   16.58833       6.700617    
  6.8728901E-03  7.0468802E-03   15.55130       6.002625    
  7.0468802E-03  7.2252699E-03   14.90725       7.863297    
  7.2252699E-03  7.4081798E-03   14.47904       10.36174    
  7.4081798E-03  7.5957198E-03   14.58214       8.418695    
  7.5957198E-03  7.7880099E-03   12.57343       7.669477    
  7.7880099E-03  7.9851598E-03   14.54590       6.044591    
  7.9851598E-03  8.1873098E-03   11.12657       5.302937    
  8.1873098E-03  8.3945701E-03   13.65075       6.656534    
  8.3945701E-03  8.6070802E-03   11.73568       6.952334    
  8.6070802E-03  8.8249696E-03   11.30166       4.323588    
  8.8249696E-03  9.0483697E-03   11.00171       5.176818    
  9.0483697E-03  9.2774397E-03   10.08551       9.019868    
  9.2774397E-03  9.5122904E-03   10.11315       6.188650    
  9.5122904E-03  9.7530996E-03   10.04704       6.211655    
  9.7530996E-03  9.9999998E-03   9.028542       8.414590    
  9.9999998E-03  1.0253200E-02   10.08916       6.763885    
  1.0253200E-02  1.0512700E-02   8.763782       5.955657    
  1.0512700E-02  1.0778800E-02   7.546728       7.324741    
  1.0778800E-02  1.1051700E-02   7.979089       7.092880    
  1.1051700E-02  1.1331500E-02   6.918804       7.700381    
  1.1331500E-02  1.1618300E-02   7.385268       7.078227    
  1.1618300E-02  1.1912500E-02   6.780954       9.584962    
  1.1912500E-02  1.2214000E-02   6.260171       8.335822    
  1.2214000E-02  1.2523200E-02   5.962917       10.32012    
  1.2523200E-02  1.2840200E-02   6.845271       5.583055    
  1.2840200E-02  1.3165300E-02   5.995301       5.464630    
  1.3165300E-02  1.3498600E-02   5.120223       6.459365    
  1.3498600E-02  1.3840300E-02   5.465000       7.971175    
  1.3840300E-02  1.4190700E-02   5.705671       10.79701    
  1.4190700E-02  1.4549900E-02   5.566753       9.030409    
  1.4549900E-02  1.4918300E-02   4.667061       7.597829    
  1.4918300E-02  1.5295900E-02   4.961946       8.573645    
  1.5295900E-02  1.5683100E-02   4.532408       10.55093    
  1.5683100E-02  1.6080100E-02   4.084204       8.600514    
  1.6080100E-02  1.6487200E-02   4.300691       7.577774    
  1.6487200E-02  1.6904600E-02   4.198263       7.363187    
  1.6904600E-02  1.7332500E-02   3.973470       11.06727    
  1.7332500E-02  1.7771300E-02   4.123534       8.394330    
  1.7771300E-02  1.8221200E-02   3.583720       8.135073    
  1.8221200E-02  1.8682500E-02   3.468675       8.537968    
  1.8682500E-02  1.9155400E-02   3.172115       9.715189    
  1.9155400E-02  1.9640300E-02   3.520515       10.75119    
  1.9640300E-02  2.0000000E-02   3.046304       14.69851    
