 # Detector n:            1   HeIIcoll  
 # N. of energy intervals         260
  1.0000100E-14  2.0000000E-13  8.0363397E+09   88.07713    
  2.0000000E-13  2.9297300E-13  5.9705917E+10   47.90024    
  2.9297300E-13  4.2916701E-13  5.7734115E+10   42.67447    
  4.2916701E-13  6.2867300E-13  1.0324682E+11   25.83300    
  6.2867300E-13  9.2092198E-13  1.0214973E+11   13.34985    
  9.2092198E-13  1.3490300E-12  1.9547328E+11   9.394607    
  1.3490300E-12  1.9761499E-12  2.6188897E+11   5.128741    
  1.9761499E-12  2.8947901E-12  3.0815850E+11   5.824450    
  2.8947901E-12  4.2404799E-12  4.1510244E+11   7.610448    
  4.2404799E-12  6.2117499E-12  4.2044726E+11   3.254868    
  6.2117499E-12  9.0993801E-12  5.1277506E+11   4.805967    
  9.0993801E-12  1.3329400E-11  4.8387519E+11   2.115317    
  1.3329400E-11  1.9525799E-11  3.7616799E+11   4.115513    
  1.9525799E-11  2.8602700E-11  2.2366577E+11   1.813724    
  2.8602700E-11  4.1899099E-11  1.0435745E+11   3.695819    
  4.1899099E-11  6.1376598E-11  3.8042116E+10   4.119304    
  6.1376598E-11  8.9908601E-11  1.3365760E+10   4.226054    
  8.9908601E-11  1.3170399E-10  3.5465037E+09   5.180723    
  1.3170399E-10  1.9292901E-10  1.5954719E+09   4.221859    
  1.9292901E-10  2.8261499E-10  8.6397325E+08   5.353771    
  2.8261499E-10  4.1399401E-10  5.5003661E+08   1.617602    
  4.1399401E-10  5.3157900E-10  3.5669488E+08   5.513487    
  5.3157900E-10  6.2506200E-10  3.0333184E+08   6.496599    
  6.2506200E-10  6.8256001E-10  2.7736134E+08   5.699733    
  6.8256001E-10  8.3368101E-10  2.2958294E+08   6.129611    
  8.3368101E-10  8.7642499E-10  2.1260886E+08   8.735499    
  8.7642499E-10  1.1253500E-09  1.7046403E+08  0.7685080    
  1.1253500E-09  1.4449800E-09  1.2789237E+08   2.070236    
  1.4449800E-09  1.8553900E-09  1.0079630E+08   3.740296    
  1.8553900E-09  2.3823701E-09  7.1429952E+07   5.265859    
  2.3823701E-09  3.0590199E-09  5.9418944E+07   4.690388    
  3.0590199E-09  3.9278598E-09  4.6475248E+07   3.958409    
  3.9278598E-09  5.0434799E-09  3.3814268E+07   1.495780    
  5.0434799E-09  6.4759500E-09  2.5970614E+07   5.690985    
  6.4759500E-09  8.3152898E-09  2.0760388E+07   5.745348    
  8.3152898E-09  1.0677000E-08  1.4435569E+07   1.754416    
  1.0677000E-08  1.3709600E-08  1.2050700E+07   2.909524    
  1.3709600E-08  1.7603501E-08   8396755.       4.709299    
  1.7603501E-08  2.2603301E-08   6889880.       2.125255    
  2.2603301E-08  2.9023200E-08   4766174.       4.776345    
  2.9023200E-08  3.7266499E-08   3763004.       3.025730    
  3.7266499E-08  4.7851199E-08   3102701.       3.707407    
  4.7851199E-08  6.1442101E-08   2406170.       3.640256    
  6.1442101E-08  7.8893301E-08   1930136.       4.817725    
  7.8893301E-08  1.0130100E-07   1359469.       3.407162    
  1.0130100E-07  1.3007300E-07   1087986.       3.150578    
  1.3007300E-07  1.6701701E-07   752557.2       6.624574    
  1.6701701E-07  2.1445400E-07   552883.9       3.387262    
  2.1445400E-07  2.7536399E-07   434624.2       7.388486    
  2.7536399E-07  3.5357499E-07   359080.9       3.164234    
  3.5357499E-07  4.5399901E-07   251067.7       4.843221    
  4.5399901E-07  5.8294700E-07   191729.9       6.820472    
  5.8294700E-07  7.4851800E-07   134518.4       5.044533    
  7.4851800E-07  9.6111603E-07   97187.53       10.16761    
  9.6111603E-07  1.2341000E-06   80180.54       7.080489    
  1.2341000E-06  1.3638900E-06   63141.36       11.37106    
  1.3638900E-06  1.5073300E-06   58597.77       10.00000    
  1.5073300E-06  1.5846100E-06   57101.82       9.827605    
  1.5846100E-06  1.6658601E-06   41380.41       26.13179    
  1.6658601E-06  1.8410600E-06   50156.90       9.776361    
  1.8410600E-06  2.0346799E-06   41242.45       10.37909    
  2.0346799E-06  2.2486699E-06   36989.73       6.681268    
  2.2486699E-06  2.4851699E-06   29915.27       10.01584    
  2.4851699E-06  2.6125899E-06   25838.61       11.19130    
  2.6125899E-06  2.7465401E-06   16211.69       18.53085    
  2.7465401E-06  2.8634900E-06   25157.32       14.80536    
  2.8634900E-06  3.0353899E-06   22820.93       13.04101    
  3.0353899E-06  3.3546301E-06   21724.28       10.98799    
  3.3546301E-06  3.7074401E-06   16580.02       7.471044    
  3.7074401E-06  4.0973500E-06   15092.48       5.143445    
  4.0973500E-06  4.3074201E-06   17341.91       13.68856    
  4.3074201E-06  4.5282700E-06   10785.62       7.594085    
  4.5282700E-06  5.0045101E-06   12357.45       10.82395    
  5.0045101E-06  5.5308401E-06   12113.53       7.261621    
  5.5308401E-06  6.2672698E-06   9228.678       8.311605    
  6.2672698E-06  7.1017398E-06   8228.721       7.544583    
  7.1017398E-06  8.0473301E-06   8225.465       15.80219    
  8.0473301E-06  9.1188203E-06   5984.070       4.220995    
  9.1188203E-06  1.0333000E-05   5425.401       8.772567    
  1.0333000E-05  1.1708800E-05   3922.293       4.435910    
  1.1708800E-05  1.3267800E-05   4068.463       12.08333    
  1.3267800E-05  1.5034400E-05   3570.670       11.82868    
  1.5034400E-05  1.7036200E-05   2731.167       4.441156    
  1.7036200E-05  1.9304500E-05   2904.897       10.63830    
  1.9304500E-05  2.1334799E-05   2555.008       23.40609    
  2.1334799E-05  2.1874899E-05   2725.589       22.50388    
  2.1874899E-05  2.3578599E-05   2262.942       9.090908    
  2.3578599E-05  2.4175501E-05   1409.217       23.57023    
  2.4175501E-05  2.4787500E-05   1259.894       40.31556    
  2.4787500E-05  2.6058400E-05   1213.384       22.87829    
  2.6058400E-05  2.8087899E-05   1381.486       13.54006    
  2.8087899E-05  3.1827800E-05   1218.165       10.16627    
  3.1827800E-05  3.4306700E-05   848.1887       17.63834    
  3.4306700E-05  3.5175199E-05   645.5637       20.41241    
  3.5175199E-05  3.6065601E-05   787.0967       34.64101    
  3.6065601E-05  4.0867701E-05   773.4552       20.05688    
  4.0867701E-05  4.6309200E-05   592.2252       24.72279    
  4.6309200E-05  5.2475199E-05   755.1867       5.117939    
  5.2475199E-05  5.6562199E-05   428.1373       21.03965    
  5.6562199E-05  5.9462200E-05   651.4601       22.93108    
  5.9462200E-05  6.2510902E-05   596.5377       13.32347    
  6.2510902E-05  6.7379500E-05   531.2617       23.09190    
  6.7379500E-05  7.6350902E-05   443.6676       15.26081    
  7.6350902E-05  8.6516899E-05   329.1584       12.26633    
  8.6516899E-05  9.8036500E-05   169.0196       22.58770    
  9.8036500E-05  1.1109000E-04   233.5275       5.248640    
  1.1109000E-04  1.1678600E-04   266.5728       24.05229    
  1.1678600E-04  1.2277300E-04   218.5186       5.263158    
  1.2277300E-04  1.2906799E-04   207.3169       30.23454    
  1.2906799E-04  1.3568600E-04   134.5777       19.35855    
  1.3568600E-04  1.4264201E-04   152.2492       35.09069    
  1.4264201E-04  1.4995600E-04   93.15290       11.54700    
  1.4995600E-04  1.5764400E-04   114.7430       14.72965    
  1.5764400E-04  1.6163501E-04   50.80544       99.00000    
  1.6163501E-04  1.6572700E-04   65.88853       40.82483    
  1.6572700E-04  1.6992200E-04   128.1841       28.86751    
  1.6992200E-04  1.7422400E-04   93.47981       57.73503    
  1.7422400E-04  1.8315599E-04   112.0630       12.76569    
  1.8315599E-04  1.9254700E-04   77.68808       37.48278    
  1.9254700E-04  2.0241900E-04   60.07629       21.27616    
  2.0241900E-04  2.1279699E-04   81.79072       40.46086    
  2.1279699E-04  2.2370800E-04   53.28960       33.33333    
  2.2370800E-04  2.3517800E-04   44.56508       20.41241    
  2.3517800E-04  2.4723500E-04   47.15091       27.96235    
  2.4723500E-04  2.5991100E-04   93.40504       21.70056    
  2.5991100E-04  2.7323700E-04   78.10065       17.64706    
  2.7323700E-04  2.8015400E-04   96.03203       40.31556    
  2.8015400E-04  2.8724599E-04   16.87088       99.00000    
  2.8724599E-04  2.9451799E-04   89.63783       31.05136    
  2.9451799E-04  3.0197401E-04   55.09241       14.28571    
  3.0197401E-04  3.0961799E-04   53.06398       14.28571    
  3.0961799E-04  3.1745600E-04   36.45695       38.29708    
  3.1745600E-04  3.3373301E-04   75.63345       27.27273    
  3.3373301E-04  3.5084400E-04   57.20711       19.24501    
  3.5084400E-04  3.6883200E-04   58.38924       23.09401    
  3.6883200E-04  3.8774201E-04   53.35544       14.14214    
  3.8774201E-04  4.0762199E-04   24.34363       11.54701    
  4.0762199E-04  4.2852099E-04   28.58186       26.27423    
  4.2852099E-04  4.5049199E-04   27.73287       29.73808    
  4.5049199E-04  4.7358900E-04   24.77097       18.44278    
  4.7358900E-04  4.9787102E-04   29.81830       23.34059    
  4.9787102E-04  5.1047403E-04   31.48065       9.090911    
  5.1047403E-04  5.2339700E-04   24.04584       21.27616    
  5.2339700E-04  5.3664698E-04   9.983747       40.82483    
  5.3664698E-04  5.5023201E-04   21.00166       37.95167    
  5.5023201E-04  5.7844300E-04   20.87370       11.54701    
  5.7844300E-04  6.0810102E-04   22.41489       20.00000    
  6.0810102E-04  6.3927902E-04   21.38181       15.43034    
  6.3927902E-04  6.7205500E-04   15.45642       11.78511    
  6.7205500E-04  7.0651202E-04   13.47718       34.17601    
  7.0651202E-04  7.4273598E-04   14.34993       18.39950    
  7.4273598E-04  7.8081700E-04   14.87030       9.128710    
  7.8081700E-04  8.2085002E-04   5.234959       20.09206    
  8.2085002E-04  8.6293602E-04   9.986220       19.80621    
  8.6293602E-04  9.0717903E-04   6.229470       6.602946    
  9.0717903E-04  9.5369201E-04   8.962106       13.89155    
  9.5369201E-04  9.6163998E-04   11.13376       31.05136    
  9.6163998E-04  9.7783399E-04   4.375641       21.27616    
  9.7783399E-04  1.0025901E-03   7.084208       29.59504    
  1.0025901E-03  1.0539900E-03   4.820339       19.50956    
  1.0539900E-03  1.1080300E-03   4.159857       11.41089    
  1.1080300E-03  1.1648400E-03   5.025916       16.11726    
  1.1648400E-03  1.1943300E-03   5.006416       37.59594    
  1.1943300E-03  1.2245600E-03   7.074132       17.63834    
  1.2245600E-03  1.2873500E-03   7.034077       16.91027    
  1.2873500E-03  1.3533500E-03   5.161018       9.819304    
  1.3533500E-03  1.4227401E-03   5.708533       16.86433    
  1.4227401E-03  1.4956900E-03   6.533364       4.781460    
  1.4956900E-03  1.5335500E-03   6.393630       20.35193    
  1.5335500E-03  1.5723699E-03   4.971611       31.62278    
  1.5723699E-03  1.6121800E-03   5.526447       34.41763    
  1.6121800E-03  1.6529900E-03   6.346388       7.659417    
  1.6529900E-03  1.7377400E-03   4.892386       16.36382    
  1.7377400E-03  1.8268300E-03   4.190970       18.39950    
  1.8268300E-03  1.8730800E-03   5.295421       32.65986    
  1.8730800E-03  1.9205000E-03   3.995119       33.33333    
  1.9205000E-03  1.9691200E-03   3.747296       27.35506    
  1.9691200E-03  2.0189700E-03   3.224824       30.42903    
  2.0189700E-03  2.1224800E-03   3.642223       19.48115    
  2.1224800E-03  2.2313001E-03   4.731307       25.71429    
  2.2313001E-03  2.2688799E-03   2.022670       20.00000    
  2.2688799E-03  2.3068599E-03   3.659166       27.96235    
  2.3068599E-03  2.3457000E-03   4.844152       30.42903    
  2.3457000E-03  2.3652499E-03   4.866615       43.03315    
  2.3652499E-03  2.3852000E-03   2.401926       33.33333    
  2.3852000E-03  2.4251300E-03   4.043812       25.81989    
  2.4251300E-03  2.4659701E-03   2.405831       63.82847    
  2.4659701E-03  2.5923999E-03   3.592401       14.02200    
  2.5923999E-03  2.7253199E-03   2.760453       9.118353    
  2.7253199E-03  2.8650500E-03   2.589805       18.25742    
  2.8650500E-03  3.0119400E-03   1.526554       13.60828    
  3.0119400E-03  3.0881900E-03   1.002604       40.82483    
  3.0881900E-03  3.1663701E-03  0.9920447       70.71068    
  3.1663701E-03  3.2465300E-03   1.962127       40.82483    
  3.2465300E-03  3.3287101E-03  0.9698589       70.71068    
  3.3287101E-03  3.4993801E-03  0.8331746       35.95159    
  3.4993801E-03  3.6787901E-03   1.392556       36.00412    
  3.6787901E-03  3.8674099E-03  0.9041395       45.64355    
  3.8674099E-03  4.0656999E-03  0.8799804       20.41241    
  4.0656999E-03  4.2741499E-03  0.9632201       27.96235    
  4.2741499E-03  4.4932901E-03   1.353604       19.35855    
  4.4932901E-03  4.6070400E-03   1.836398       49.27457    
  4.6070400E-03  4.7236700E-03   1.610392       28.86751    
  4.7236700E-03  4.8432499E-03  0.5958927       63.82847    
  4.8432499E-03  4.9658502E-03   1.764291       21.27616    
  4.9658502E-03  5.2204598E-03   1.153368       27.21655    
  5.2204598E-03  5.4881200E-03   1.124725       30.42903    
  5.4881200E-03  5.7695000E-03   1.097854       33.33333    
  5.7695000E-03  5.9155500E-03   1.618472       58.44346    
  5.9155500E-03  6.0653100E-03  0.8889958       60.00000    
  6.0653100E-03  6.2188501E-03   1.406891       54.00617    
  6.2188501E-03  6.3762800E-03  0.3479798       99.00000    
  6.3762800E-03  6.5377001E-03  0.6887266       57.73503    
  6.5377001E-03  6.5923799E-03  0.5133394       99.00000    
  6.5923799E-03  6.6475999E-03  0.5108544       99.00000    
  6.6475999E-03  6.7031998E-03   2.549665       60.00000    
  6.7031998E-03  6.8728901E-03   1.012702       33.33333    
  6.8728901E-03  7.0468802E-03   1.003073       43.03315    
  7.0468802E-03  7.2252699E-03  0.4969411       63.82847    
  7.2252699E-03  7.4081798E-03   1.149140       27.35506    
  7.4081798E-03  7.5957198E-03  0.4882431       63.82847    
  7.5957198E-03  7.7880099E-03  0.9683173       63.82847    
  7.7880099E-03  7.9851598E-03  0.9605932       43.03315    
  7.9851598E-03  8.1873098E-03  0.7942259       75.71878    
  8.1873098E-03  8.3945701E-03  0.6306457       40.82483    
  8.3945701E-03  8.6070802E-03   1.095690       42.85714    
  8.6070802E-03  8.8249696E-03   1.088104       14.28571    
  8.8249696E-03  9.0483697E-03   1.080960       27.35506    
  9.0483697E-03  9.2774397E-03  0.7671379       60.00000    
  9.2774397E-03  9.5122904E-03  0.3050289       57.73503    
  9.5122904E-03  9.7530996E-03  0.6064800       40.82483    
  9.7530996E-03  9.9999998E-03  0.4523375       63.82847    
  9.9999998E-03  1.0253200E-02  0.7497838       38.29708    
  1.0253200E-02  1.0512700E-02  0.7463980       38.29708    
  1.0512700E-02  1.0778800E-02  0.1485644       99.00000    
  1.0778800E-02  1.1051700E-02  0.5914551       70.71068    
  1.1051700E-02  1.1331500E-02  0.2945141       99.00000    
  1.1331500E-02  1.1618300E-02  0.2934426       57.73503    
  1.1618300E-02  1.1912500E-02  0.5844260       40.82483    
  1.1912500E-02  1.2214000E-02  0.2913800       57.73503    
  1.2214000E-02  1.2523200E-02  0.5807698       99.00000    
  1.2523200E-02  1.2840200E-02  0.4343205       63.82847    
  1.2840200E-02  1.3165300E-02  0.1443560       99.00000    
  1.3165300E-02  1.3498600E-02   0.000000       0.000000    
  1.3498600E-02  1.3840300E-02  0.1436973       99.00000    
  1.3840300E-02  1.4190700E-02  0.1433732       99.00000    
  1.4190700E-02  1.4549900E-02  0.2862391       57.73503    
  1.4549900E-02  1.4918300E-02  0.1428321       99.00000    
  1.4918300E-02  1.5295900E-02  0.2852880       99.00000    
  1.5295900E-02  1.5683100E-02  0.2848189       99.00000    
  1.5683100E-02  1.6080100E-02  0.5688131       0.000000    
  1.6080100E-02  1.6487200E-02  0.4259527       63.82847    
  1.6487200E-02  1.6904600E-02   0.000000       0.000000    
  1.6904600E-02  1.7332500E-02  0.1416063       99.00000    
  1.7332500E-02  1.7771300E-02  0.2827407       57.73503    
  1.7771300E-02  1.8221200E-02   0.000000       0.000000    
  1.8221200E-02  1.8682500E-02  0.2817636       57.73503    
  1.8682500E-02  1.9155400E-02  0.5624635       40.82483    
  1.9155400E-02  1.9640300E-02  0.1402762       99.00000    
  1.9640300E-02  2.0000000E-02   0.000000       0.000000    
