 # Detector n:            1   HeIInflux 
 # N. of energy intervals         260
  1.0000100E-14  2.0000000E-13  9.1486183E+10   1.017834    
  2.0000000E-13  2.9297300E-13  2.0546360E+11  0.9387426    
  2.9297300E-13  4.2916701E-13  2.9109014E+11  0.6576990    
  4.2916701E-13  6.2867300E-13  4.0478946E+11  0.4620023    
  6.2867300E-13  9.2092198E-13  5.6546165E+11  0.3315248    
  9.2092198E-13  1.3490300E-12  7.5419196E+11  0.2423199    
  1.3490300E-12  1.9761499E-12  9.7217996E+11  0.1836205    
  1.9761499E-12  2.8947901E-12  1.2164975E+12  0.1345965    
  2.8947901E-12  4.2404799E-12  1.4397980E+12  0.1098612    
  4.2404799E-12  6.2117499E-12  1.5930288E+12  9.2470579E-02
  6.2117499E-12  9.0993801E-12  1.6087739E+12  7.9422347E-02
  9.0993801E-12  1.3329400E-11  1.4498570E+12  7.3289506E-02
  1.3329400E-11  1.9525799E-11  1.1244843E+12  7.2022840E-02
  1.9525799E-11  2.8602700E-11  7.2797703E+11  7.2345600E-02
  2.8602700E-11  4.1899099E-11  3.9166506E+11  7.7242240E-02
  4.1899099E-11  6.1376598E-11  1.8892793E+11  8.5770749E-02
  6.1376598E-11  8.9908601E-11  8.3071959E+10  9.8975964E-02
  8.9908601E-11  1.3170399E-10  3.1220900E+10  0.1238233    
  1.3170399E-10  1.9292901E-10  1.0999031E+10  0.1748580    
  1.9292901E-10  2.8261499E-10  4.7861294E+09  0.2168505    
  2.8261499E-10  4.1399401E-10  2.7370304E+09  0.2378596    
  4.1399401E-10  5.3157900E-10  1.8965238E+09  0.2795267    
  5.3157900E-10  6.2506200E-10  1.5154420E+09  0.3533351    
  6.2506200E-10  6.8256001E-10  1.3151977E+09  0.4836152    
  6.8256001E-10  8.3368101E-10  1.1134958E+09  0.3423482    
  8.3368101E-10  8.7642499E-10  9.7412134E+08  0.6455112    
  8.7642499E-10  1.1253500E-09  8.2462381E+08  0.3161238    
  1.1253500E-09  1.4449800E-09  6.2863622E+08  0.3117617    
  1.4449800E-09  1.8553900E-09  4.8026614E+08  0.3146122    
  1.8553900E-09  2.3823701E-09  3.6605619E+08  0.3163192    
  2.3823701E-09  3.0590199E-09  2.8093427E+08  0.3180822    
  3.0590199E-09  3.9278598E-09  2.1555984E+08  0.3230844    
  3.9278598E-09  5.0434799E-09  1.6619259E+08  0.3274575    
  5.0434799E-09  6.4759500E-09  1.2729820E+08  0.3195939    
  6.4759500E-09  8.3152898E-09  9.8127888E+07  0.3145039    
  8.3152898E-09  1.0677000E-08  7.5519368E+07  0.3079263    
  1.0677000E-08  1.3709600E-08  5.7990680E+07  0.3371015    
  1.3709600E-08  1.7603501E-08  4.4391444E+07  0.3369989    
  1.7603501E-08  2.2603301E-08  3.4050804E+07  0.3216432    
  2.2603301E-08  2.9023200E-08  2.5982580E+07  0.3341514    
  2.9023200E-08  3.7266499E-08  1.9823698E+07  0.3428879    
  3.7266499E-08  4.7851199E-08  1.5287694E+07  0.3522048    
  4.7851199E-08  6.1442101E-08  1.1634509E+07  0.3503875    
  6.1442101E-08  7.8893301E-08   8896281.      0.3520283    
  7.8893301E-08  1.0130100E-07   6780518.      0.3419640    
  1.0130100E-07  1.3007300E-07   5153286.      0.3726815    
  1.3007300E-07  1.6701701E-07   3913268.      0.3689792    
  1.6701701E-07  2.1445400E-07   2965122.      0.3678634    
  2.1445400E-07  2.7536399E-07   2249546.      0.3570632    
  2.7536399E-07  3.5357499E-07   1715739.      0.3762560    
  3.5357499E-07  4.5399901E-07   1277425.      0.3654118    
  4.5399901E-07  5.8294700E-07   968861.2      0.3940357    
  5.8294700E-07  7.4851800E-07   739340.4      0.3918090    
  7.4851800E-07  9.6111603E-07   555148.4      0.3973036    
  9.6111603E-07  1.2341000E-06   415097.3      0.4020537    
  1.2341000E-06  1.3638900E-06   340692.8      0.6315360    
  1.3638900E-06  1.5073300E-06   305124.6      0.6284585    
  1.5073300E-06  1.5846100E-06   280409.3      0.8535964    
  1.5846100E-06  1.6658601E-06   266003.5      0.9148625    
  1.6658601E-06  1.8410600E-06   244813.6      0.6404383    
  1.8410600E-06  2.0346799E-06   230844.6      0.6365207    
  2.0346799E-06  2.2486699E-06   180583.5      0.6931265    
  2.2486699E-06  2.4851699E-06   170322.6      0.6847830    
  2.4851699E-06  2.6125899E-06   146322.5      0.9412695    
  2.6125899E-06  2.7465401E-06   140762.1      0.9928412    
  2.7465401E-06  2.8634900E-06   139936.4       1.022295    
  2.8634900E-06  3.0353899E-06   131078.1      0.8696958    
  3.0353899E-06  3.3546301E-06   120811.1      0.6729960    
  3.3546301E-06  3.7074401E-06   108127.1      0.6882156    
  3.7074401E-06  4.0973500E-06   96066.18      0.7150536    
  4.0973500E-06  4.3074201E-06   86849.14      0.9384466    
  4.3074201E-06  4.5282700E-06   81276.84      0.9546407    
  4.5282700E-06  5.0045101E-06   75395.96      0.6673667    
  5.0045101E-06  5.5308401E-06   73785.74      0.6725999    
  5.5308401E-06  6.2672698E-06   48481.92      0.6916123    
  6.2672698E-06  7.1017398E-06   50659.73      0.6400954    
  7.1017398E-06  8.0473301E-06   42882.11      0.6791139    
  8.0473301E-06  9.1188203E-06   37357.55      0.6511335    
  9.1188203E-06  1.0333000E-05   32047.80      0.6542056    
  1.0333000E-05  1.1708800E-05   27708.12      0.6755281    
  1.1708800E-05  1.3267800E-05   23858.73      0.6568729    
  1.3267800E-05  1.5034400E-05   20362.80      0.6982732    
  1.5034400E-05  1.7036200E-05   17438.76      0.7320367    
  1.7036200E-05  1.9304500E-05   14659.56      0.7494065    
  1.9304500E-05  2.1334799E-05   12807.19      0.7983692    
  2.1334799E-05  2.1874899E-05   11374.88       1.634092    
  2.1874899E-05  2.3578599E-05   11082.72      0.9891797    
  2.3578599E-05  2.4175501E-05   10443.09       1.742739    
  2.4175501E-05  2.4787500E-05   10053.73       1.679222    
  2.4787500E-05  2.6058400E-05   9913.153       1.167859    
  2.6058400E-05  2.8087899E-05   9582.871      0.9201823    
  2.8087899E-05  3.1827800E-05   10126.03      0.6899339    
  3.1827800E-05  3.4306700E-05   5766.846       1.042007    
  3.4306700E-05  3.5175199E-05   2677.329       2.714495    
  3.5175199E-05  3.6065601E-05   2505.037       2.617909    
  3.6065601E-05  4.0867701E-05   3508.199      0.9497819    
  4.0867701E-05  4.6309200E-05   4275.844      0.8851723    
  4.6309200E-05  5.2475199E-05   3935.273      0.8643941    
  5.2475199E-05  5.6562199E-05   3571.545       1.111210    
  5.6562199E-05  5.9462200E-05   3318.673       1.334936    
  5.9462200E-05  6.2510902E-05   3181.192       1.286587    
  6.2510902E-05  6.7379500E-05   2929.868       1.106727    
  6.7379500E-05  7.6350902E-05   2957.829      0.8069956    
  7.6350902E-05  8.6516899E-05   1995.382      0.9444713    
  8.6516899E-05  9.8036500E-05   1103.683       1.116090    
  9.8036500E-05  1.1109000E-04   1437.025      0.9370604    
  1.1109000E-04  1.1678600E-04   1413.595       1.440747    
  1.1678600E-04  1.2277300E-04   951.3533       1.720453    
  1.2277300E-04  1.2906799E-04   1474.212       1.362544    
  1.2906799E-04  1.3568600E-04   1482.608       1.379225    
  1.3568600E-04  1.4264201E-04   1033.771       1.491764    
  1.4264201E-04  1.4995600E-04   765.9881       1.620723    
  1.4995600E-04  1.5764400E-04   710.6247       1.658571    
  1.5764400E-04  1.6163501E-04   561.9479       2.629571    
  1.6163501E-04  1.6572700E-04   696.0380       2.382094    
  1.6572700E-04  1.6992200E-04   729.2722       2.320485    
  1.6992200E-04  1.7422400E-04   736.5193       2.240879    
  1.7422400E-04  1.8315599E-04   771.0010       1.567394    
  1.8315599E-04  1.9254700E-04   763.9974       1.423274    
  1.9254700E-04  2.0241900E-04   689.9411       1.494039    
  2.0241900E-04  2.1279699E-04   541.6771       1.686391    
  2.1279699E-04  2.2370800E-04   530.0825       1.590433    
  2.2370800E-04  2.3517800E-04   540.2408       1.605812    
  2.3517800E-04  2.4723500E-04   540.8805       1.514444    
  2.4723500E-04  2.5991100E-04   532.0912       1.568815    
  2.5991100E-04  2.7323700E-04   548.5920       1.408063    
  2.7323700E-04  2.8015400E-04   508.5129       2.108883    
  2.8015400E-04  2.8724599E-04   395.1125       2.309859    
  2.8724599E-04  2.9451799E-04   398.6253       2.232704    
  2.9451799E-04  3.0197401E-04   392.2260       2.282462    
  3.0197401E-04  3.0961799E-04   382.5251       2.180774    
  3.0961799E-04  3.1745600E-04   364.2981       2.227087    
  3.1745600E-04  3.3373301E-04   357.2686       1.603448    
  3.3373301E-04  3.5084400E-04   360.3372       1.625414    
  3.5084400E-04  3.6883200E-04   306.3558       1.639427    
  3.6883200E-04  3.8774201E-04   284.0177       1.675974    
  3.8774201E-04  4.0762199E-04   277.9052       1.650467    
  4.0762199E-04  4.2852099E-04   227.8367       1.657973    
  4.2852099E-04  4.5049199E-04   207.7274       1.755069    
  4.5049199E-04  4.7358900E-04   204.6837       1.655287    
  4.7358900E-04  4.9787102E-04   203.3890       1.720389    
  4.9787102E-04  5.1047403E-04   197.2647       2.251185    
  5.1047403E-04  5.2339700E-04   202.5194       2.201402    
  5.2339700E-04  5.3664698E-04   161.5283       2.506119    
  5.3664698E-04  5.5023201E-04   177.3683       2.396556    
  5.5023201E-04  5.7844300E-04   158.3275       1.686177    
  5.7844300E-04  6.0810102E-04   144.9345       1.630897    
  6.0810102E-04  6.3927902E-04   135.6922       1.666086    
  6.3927902E-04  6.7205500E-04   113.6943       1.775596    
  6.7205500E-04  7.0651202E-04   110.8232       1.744179    
  7.0651202E-04  7.4273598E-04   95.90305       1.735054    
  7.4273598E-04  7.8081700E-04   87.07026       1.726367    
  7.8081700E-04  8.2085002E-04   69.03593       1.784333    
  8.2085002E-04  8.6293602E-04   63.42593       1.820858    
  8.6293602E-04  9.0717903E-04   55.43364       1.750902    
  9.0717903E-04  9.5369201E-04   51.24429       1.739711    
  9.5369201E-04  9.6163998E-04   48.99493       4.098800    
  9.6163998E-04  9.7783399E-04   44.54251       3.046644    
  9.7783399E-04  1.0025901E-03   44.50681       2.419502    
  1.0025901E-03  1.0539900E-03   42.30516       1.769903    
  1.0539900E-03  1.1080300E-03   40.82638       1.723545    
  1.1080300E-03  1.1648400E-03   38.35358       1.783863    
  1.1648400E-03  1.1943300E-03   35.92106       2.356891    
  1.1943300E-03  1.2245600E-03   38.26612       2.374952    
  1.2245600E-03  1.2873500E-03   36.33900       1.666619    
  1.2873500E-03  1.3533500E-03   37.69200       1.679303    
  1.3533500E-03  1.4227401E-03   37.15873       1.660953    
  1.4227401E-03  1.4956900E-03   37.57476       1.698942    
  1.4956900E-03  1.5335500E-03   37.83948       2.394786    
  1.5335500E-03  1.5723699E-03   36.58316       2.207881    
  1.5723699E-03  1.6121800E-03   35.94196       2.377074    
  1.6121800E-03  1.6529900E-03   35.73719       2.341415    
  1.6529900E-03  1.7377400E-03   36.60433       1.711861    
  1.7377400E-03  1.8268300E-03   35.50976       1.663328    
  1.8268300E-03  1.8730800E-03   35.50430       2.363890    
  1.8730800E-03  1.9205000E-03   33.07631       2.487840    
  1.9205000E-03  1.9691200E-03   33.27596       2.349217    
  1.9691200E-03  2.0189700E-03   33.82289       2.416928    
  2.0189700E-03  2.1224800E-03   32.22941       1.764274    
  2.1224800E-03  2.2313001E-03   30.59809       1.832442    
  2.2313001E-03  2.2688799E-03   30.86535       2.926260    
  2.2688799E-03  2.3068599E-03   30.20577       2.990314    
  2.3068599E-03  2.3457000E-03   29.98058       2.879894    
  2.3457000E-03  2.3652499E-03   27.64495       4.227202    
  2.3652499E-03  2.3852000E-03   28.55401       4.030157    
  2.3852000E-03  2.4251300E-03   29.27225       2.985041    
  2.4251300E-03  2.4659701E-03   27.98129       2.957099    
  2.4659701E-03  2.5923999E-03   24.84060       1.797205    
  2.5923999E-03  2.7253199E-03   24.03899       1.875841    
  2.7253199E-03  2.8650500E-03   22.24774       1.947268    
  2.8650500E-03  3.0119400E-03   21.66397       1.895561    
  3.0119400E-03  3.0881900E-03   19.74423       2.573996    
  3.0881900E-03  3.1663701E-03   19.87628       2.644410    
  3.1663701E-03  3.2465300E-03   18.50181       2.858061    
  3.2465300E-03  3.3287101E-03   17.86129       2.703235    
  3.3287101E-03  3.4993801E-03   17.69757       1.940928    
  3.4993801E-03  3.6787901E-03   15.92535       2.070392    
  3.6787901E-03  3.8674099E-03   15.66587       2.054955    
  3.8674099E-03  4.0656999E-03   15.66633       2.036015    
  4.0656999E-03  4.2741499E-03   14.81212       1.997390    
  4.2741499E-03  4.4932901E-03   14.20774       2.005515    
  4.4932901E-03  4.6070400E-03   13.72218       2.683917    
  4.6070400E-03  4.7236700E-03   13.15008       2.851286    
  4.7236700E-03  4.8432499E-03   12.74171       2.751436    
  4.8432499E-03  4.9658502E-03   11.87920       3.014229    
  4.9658502E-03  5.2204598E-03   11.39886       2.131320    
  5.2204598E-03  5.4881200E-03   11.04741       2.097683    
  5.4881200E-03  5.7695000E-03   10.62917       2.042452    
  5.7695000E-03  5.9155500E-03   10.24607       2.869781    
  5.9155500E-03  6.0653100E-03   9.636744       2.940285    
  6.0653100E-03  6.2188501E-03   9.907240       2.939117    
  6.2188501E-03  6.3762800E-03   9.525532       2.864669    
  6.3762800E-03  6.5377001E-03   9.193821       2.979365    
  6.5377001E-03  6.5923799E-03   9.872892       4.909839    
  6.5923799E-03  6.6475999E-03   9.233677       5.214821    
  6.6475999E-03  6.7031998E-03   9.386780       5.103240    
  6.7031998E-03  6.8728901E-03   8.373127       2.927755    
  6.8728901E-03  7.0468802E-03   7.869648       3.018036    
  7.0468802E-03  7.2252699E-03   7.879108       2.922407    
  7.2252699E-03  7.4081798E-03   7.670592       3.107915    
  7.4081798E-03  7.5957198E-03   7.965669       2.987781    
  7.5957198E-03  7.7880099E-03   7.044180       2.909770    
  7.7880099E-03  7.9851598E-03   6.784739       3.060584    
  7.9851598E-03  8.1873098E-03   6.888534       3.002221    
  8.1873098E-03  8.3945701E-03   6.473076       3.012501    
  8.3945701E-03  8.6070802E-03   6.326466       2.934867    
  8.6070802E-03  8.8249696E-03   6.285428       3.104043    
  8.8249696E-03  9.0483697E-03   6.070042       3.100657    
  9.0483697E-03  9.2774397E-03   5.897551       3.140575    
  9.2774397E-03  9.5122904E-03   5.788910       3.195951    
  9.5122904E-03  9.7530996E-03   5.638216       3.125013    
  9.7530996E-03  9.9999998E-03   5.323370       3.101256    
  9.9999998E-03  1.0253200E-02   4.851048       3.277047    
  1.0253200E-02  1.0512700E-02   4.963619       3.232460    
  1.0512700E-02  1.0778800E-02   5.238888       3.292407    
  1.0778800E-02  1.1051700E-02   4.930564       3.275598    
  1.1051700E-02  1.1331500E-02   4.712580       3.261045    
  1.1331500E-02  1.1618300E-02   4.496172       3.211912    
  1.1618300E-02  1.1912500E-02   4.569725       3.226558    
  1.1912500E-02  1.2214000E-02   4.454587       3.399029    
  1.2214000E-02  1.2523200E-02   4.206870       3.320222    
  1.2523200E-02  1.2840200E-02   4.070834       3.023024    
  1.2840200E-02  1.3165300E-02   4.205730       3.041025    
  1.3165300E-02  1.3498600E-02   4.172360       3.189744    
  1.3498600E-02  1.3840300E-02   3.799546       3.202062    
  1.3840300E-02  1.4190700E-02   3.749607       3.273907    
  1.4190700E-02  1.4549900E-02   3.628798       3.380220    
  1.4549900E-02  1.4918300E-02   3.586072       3.210109    
  1.4918300E-02  1.5295900E-02   3.454478       3.195422    
  1.5295900E-02  1.5683100E-02   3.295991       3.284018    
  1.5683100E-02  1.6080100E-02   3.309882       3.217561    
  1.6080100E-02  1.6487200E-02   3.057357       3.168680    
  1.6487200E-02  1.6904600E-02   3.221063       3.208680    
  1.6904600E-02  1.7332500E-02   3.064770       3.347456    
  1.7332500E-02  1.7771300E-02   3.019504       3.434319    
  1.7771300E-02  1.8221200E-02   2.543127       3.387979    
  1.8221200E-02  1.8682500E-02   2.621502       3.651169    
  1.8682500E-02  1.9155400E-02   2.549162       3.399386    
  1.9155400E-02  1.9640300E-02   2.441265       3.365851    
  1.9640300E-02  2.0000000E-02   2.440050       4.198119    
