 # Detector n:  1  HeIInflux 
 # N. of energy intervals 260
  1.0000100E-14  2.0000000E-13  6.0757987E+10   14.23194    
  2.0000000E-13  2.9297300E-13  1.5399043E+11   13.44835    
  2.9297300E-13  4.2916701E-13  2.8631106E+11   9.391418    
  4.2916701E-13  6.2867300E-13  3.7476886E+11   7.395690    
  6.2867300E-13  9.2092198E-13  5.0693302E+11   6.251567    
  9.2092198E-13  1.3490300E-12  6.7252027E+11   4.251853    
  1.3490300E-12  1.9761499E-12  9.7983739E+11   1.870919    
  1.9761499E-12  2.8947901E-12  1.2033470E+12   2.177562    
  2.8947901E-12  4.2404799E-12  1.4302481E+12  0.8784415    
  4.2404799E-12  6.2117499E-12  1.6344256E+12   1.106541    
  6.2117499E-12  9.0993801E-12  1.6926565E+12  0.8701571    
  9.0993801E-12  1.3329400E-11  1.5101593E+12  0.8995371    
  1.3329400E-11  1.9525799E-11  1.1459112E+12  0.7022840    
  1.9525799E-11  2.8602700E-11  6.9525196E+11  0.9873500    
  2.8602700E-11  4.1899099E-11  3.1417876E+11  0.7801123    
  4.1899099E-11  6.1376598E-11  1.2779607E+11   1.528173    
  6.1376598E-11  8.9908601E-11  5.3673349E+10   1.180278    
  8.9908601E-11  1.3170399E-10  2.4533160E+10   1.004113    
  1.3170399E-10  1.9292901E-10  1.3762203E+10   1.064777    
  1.9292901E-10  2.8261499E-10  8.3440686E+09   1.005524    
  2.8261499E-10  4.1399401E-10  5.3804047E+09  0.8072278    
  4.1399401E-10  5.3157900E-10  3.8612695E+09  0.7312738    
  5.3157900E-10  6.2506200E-10  3.1504159E+09  0.9876418    
  6.2506200E-10  6.8256001E-10  2.7565806E+09   1.306554    
  6.8256001E-10  8.3368101E-10  2.3769539E+09  0.7759464    
  8.3368101E-10  8.7642499E-10  2.0520877E+09   1.586310    
  8.7642499E-10  1.1253500E-09  1.7878940E+09  0.8147347    
  1.1253500E-09  1.4449800E-09  1.3699839E+09  0.7275720    
  1.4449800E-09  1.8553900E-09  1.0638591E+09  0.9088953    
  1.8553900E-09  2.3823701E-09  8.2496531E+08  0.6836317    
  2.3823701E-09  3.0590199E-09  6.3901805E+08  0.8537350    
  3.0590199E-09  3.9278598E-09  4.9503949E+08  0.6892793    
  3.9278598E-09  5.0434799E-09  3.9110416E+08  0.8972560    
  5.0434799E-09  6.4759500E-09  3.0059325E+08  0.6389778    
  6.4759500E-09  8.3152898E-09  2.3399550E+08  0.5348363    
  8.3152898E-09  1.0677000E-08  1.8299424E+08  0.5005180    
  1.0677000E-08  1.3709600E-08  1.4377253E+08  0.5878374    
  1.3709600E-08  1.7603501E-08  1.1198985E+08  0.8149541    
  1.7603501E-08  2.2603301E-08  8.6956768E+07  0.5689153    
  2.2603301E-08  2.9023200E-08  6.6948012E+07  0.9887007    
  2.9023200E-08  3.7266499E-08  5.2702892E+07  0.6483764    
  3.7266499E-08  4.7851199E-08  4.1137808E+07  0.7626831    
  4.7851199E-08  6.1442101E-08  3.1627180E+07  0.7374596    
  6.1442101E-08  7.8893301E-08  2.4697882E+07   1.007085    
  7.8893301E-08  1.0130100E-07  1.8987356E+07  0.8183252    
  1.0130100E-07  1.3007300E-07  1.4707321E+07  0.7437271    
  1.3007300E-07  1.6701701E-07  1.1376640E+07   1.030081    
  1.6701701E-07  2.1445400E-07   8783078.      0.7039900    
  2.1445400E-07  2.7536399E-07   6856470.      0.7446571    
  2.7536399E-07  3.5357499E-07   5227821.      0.7476147    
  3.5357499E-07  4.5399901E-07   4070145.      0.7930321    
  4.5399901E-07  5.8294700E-07   3154483.      0.7285235    
  5.8294700E-07  7.4851800E-07   2380182.      0.6819805    
  7.4851800E-07  9.6111603E-07   1856923.      0.9162403    
  9.6111603E-07  1.2341000E-06   1425838.      0.8347022    
  1.2341000E-06  1.3638900E-06   1203615.       1.161852    
  1.3638900E-06  1.5073300E-06   1058331.       1.425800    
  1.5073300E-06  1.5846100E-06   989015.6       1.420096    
  1.5846100E-06  1.6658601E-06   966340.3       1.318887    
  1.6658601E-06  1.8410600E-06   853847.7      0.8580799    
  1.8410600E-06  2.0346799E-06   788419.3       1.463986    
  2.0346799E-06  2.2486699E-06   704098.1       1.321448    
  2.2486699E-06  2.4851699E-06   634738.1       1.095423    
  2.4851699E-06  2.6125899E-06   584665.8       1.690163    
  2.6125899E-06  2.7465401E-06   559034.2       1.809551    
  2.7465401E-06  2.8634900E-06   525027.6       1.062866    
  2.8634900E-06  3.0353899E-06   488882.3       2.156272    
  3.0353899E-06  3.3546301E-06   459434.3      0.9189819    
  3.3546301E-06  3.7074401E-06   412704.8       1.304958    
  3.7074401E-06  4.0973500E-06   369184.0       1.393113    
  4.0973500E-06  4.3074201E-06   332604.8       1.586706    
  4.3074201E-06  4.5282700E-06   325913.1       2.526225    
  4.5282700E-06  5.0045101E-06   299371.5       1.608679    
  5.0045101E-06  5.5308401E-06   287458.3       1.452042    
  5.5308401E-06  6.2672698E-06   210518.0       1.473765    
  6.2672698E-06  7.1017398E-06   202478.7       1.418899    
  7.1017398E-06  8.0473301E-06   179748.2       1.146495    
  8.0473301E-06  9.1188203E-06   154363.2      0.8342528    
  9.1188203E-06  1.0333000E-05   136196.9       1.176809    
  1.0333000E-05  1.1708800E-05   117130.5       1.238156    
  1.1708800E-05  1.3267800E-05   101947.1      0.5323976    
  1.3267800E-05  1.5034400E-05   88232.89       1.386621    
  1.5034400E-05  1.7036200E-05   77171.38       1.166079    
  1.7036200E-05  1.9304500E-05   65535.96      0.9500834    
  1.9304500E-05  2.1334799E-05   57416.70       1.531941    
  2.1334799E-05  2.1874899E-05   54921.62       2.135795    
  2.1874899E-05  2.3578599E-05   51026.21       1.447000    
  2.3578599E-05  2.4175501E-05   48019.50       3.601551    
  2.4175501E-05  2.4787500E-05   46070.26       1.976099    
  2.4787500E-05  2.6058400E-05   46378.40       2.118474    
  2.6058400E-05  2.8087899E-05   44903.86       1.728127    
  2.8087899E-05  3.1827800E-05   45436.12       1.509367    
  3.1827800E-05  3.4306700E-05   32163.04       2.078546    
  3.4306700E-05  3.5175199E-05   17272.82       3.605004    
  3.5175199E-05  3.6065601E-05   15113.58       4.267566    
  3.6065601E-05  4.0867701E-05   20235.48       1.669882    
  4.0867701E-05  4.6309200E-05   21410.14       1.451543    
  4.6309200E-05  5.2475199E-05   19902.27       1.064100    
  5.2475199E-05  5.6562199E-05   17547.10       1.651981    
  5.6562199E-05  5.9462200E-05   17042.09       2.525797    
  5.9462200E-05  6.2510902E-05   15218.75       2.740566    
  6.2510902E-05  6.7379500E-05   14107.11       2.024938    
  6.7379500E-05  7.6350902E-05   14323.99       1.560287    
  7.6350902E-05  8.6516899E-05   10918.64       1.951872    
  8.6516899E-05  9.8036500E-05   6417.495       1.780075    
  9.8036500E-05  1.1109000E-04   7479.620       1.220180    
  1.1109000E-04  1.1678600E-04   7143.879       1.898218    
  1.1678600E-04  1.2277300E-04   5133.426       2.321641    
  1.2277300E-04  1.2906799E-04   7110.916       1.725927    
  1.2906799E-04  1.3568600E-04   7144.402       1.666414    
  1.3568600E-04  1.4264201E-04   5433.611       2.644490    
  1.4264201E-04  1.4995600E-04   4065.647       3.125286    
  1.4995600E-04  1.5764400E-04   3956.817       2.988892    
  1.5764400E-04  1.6163501E-04   2995.355       3.461641    
  1.6163501E-04  1.6572700E-04   3617.552       4.395701    
  1.6572700E-04  1.6992200E-04   3761.140       4.034616    
  1.6992200E-04  1.7422400E-04   3833.159       3.058420    
  1.7422400E-04  1.8315599E-04   3889.151       1.931988    
  1.8315599E-04  1.9254700E-04   3926.012       1.886131    
  1.9254700E-04  2.0241900E-04   3579.089       2.915065    
  2.0241900E-04  2.1279699E-04   2691.278       2.020874    
  2.1279699E-04  2.2370800E-04   2879.711       2.628234    
  2.2370800E-04  2.3517800E-04   2708.827       1.883396    
  2.3517800E-04  2.4723500E-04   2714.453       1.887163    
  2.4723500E-04  2.5991100E-04   2673.174       2.841098    
  2.5991100E-04  2.7323700E-04   2740.737       1.640350    
  2.7323700E-04  2.8015400E-04   2357.412       3.013449    
  2.8015400E-04  2.8724599E-04   2016.304       5.202868    
  2.8724599E-04  2.9451799E-04   1892.271       4.837224    
  2.9451799E-04  3.0197401E-04   1788.820       4.992458    
  3.0197401E-04  3.0961799E-04   1688.269       3.533900    
  3.0961799E-04  3.1745600E-04   1712.245       3.812818    
  3.1745600E-04  3.3373301E-04   1793.662       2.993037    
  3.3373301E-04  3.5084400E-04   1673.911       2.768346    
  3.5084400E-04  3.6883200E-04   1498.291       3.815275    
  3.6883200E-04  3.8774201E-04   1304.107       2.816757    
  3.8774201E-04  4.0762199E-04   1333.232       3.202951    
  4.0762199E-04  4.2852099E-04   1074.231       2.091140    
  4.2852099E-04  4.5049199E-04   998.8947       2.622985    
  4.5049199E-04  4.7358900E-04   1002.225       2.672982    
  4.7358900E-04  4.9787102E-04   1002.256       2.824837    
  4.9787102E-04  5.1047403E-04   939.7525       4.029356    
  5.1047403E-04  5.2339700E-04   929.4543       3.473912    
  5.2339700E-04  5.3664698E-04   700.1841       5.041914    
  5.3664698E-04  5.5023201E-04   813.0328       4.397952    
  5.5023201E-04  5.7844300E-04   711.9543       2.177765    
  5.7844300E-04  6.0810102E-04   636.2910       3.285594    
  6.0810102E-04  6.3927902E-04   574.8229       2.951015    
  6.3927902E-04  6.7205500E-04   485.7376       3.564362    
  6.7205500E-04  7.0651202E-04   474.3195       2.448307    
  7.0651202E-04  7.4273598E-04   434.2533       4.099212    
  7.4273598E-04  7.8081700E-04   385.9889       4.743837    
  7.8081700E-04  8.2085002E-04   295.1288       3.538671    
  8.2085002E-04  8.6293602E-04   268.4314       4.087474    
  8.6293602E-04  9.0717903E-04   227.2145       3.704777    
  9.0717903E-04  9.5369201E-04   212.7582       3.847181    
  9.5369201E-04  9.6163998E-04   199.2666       8.557040    
  9.6163998E-04  9.7783399E-04   225.2044       5.038950    
  9.7783399E-04  1.0025901E-03   192.7964       5.426135    
  1.0025901E-03  1.0539900E-03   166.1791       3.927726    
  1.0539900E-03  1.1080300E-03   171.5923       2.693817    
  1.1080300E-03  1.1648400E-03   144.7429       3.404581    
  1.1648400E-03  1.1943300E-03   139.9350       5.423705    
  1.1943300E-03  1.2245600E-03   138.0113       7.205221    
  1.2245600E-03  1.2873500E-03   136.8915       2.417212    
  1.2873500E-03  1.3533500E-03   125.7045       3.832007    
  1.3533500E-03  1.4227401E-03   127.7023       3.122072    
  1.4227401E-03  1.4956900E-03   125.0310       3.804256    
  1.4956900E-03  1.5335500E-03   110.8373       7.976503    
  1.5335500E-03  1.5723699E-03   105.1221       4.463737    
  1.5723699E-03  1.6121800E-03   111.3562       4.854434    
  1.6121800E-03  1.6529900E-03   104.6797       4.780958    
  1.6529900E-03  1.7377400E-03   107.1198       3.050206    
  1.7377400E-03  1.8268300E-03   100.1248       3.720902    
  1.8268300E-03  1.8730800E-03   102.5633       6.540362    
  1.8730800E-03  1.9205000E-03   80.21445       6.914778    
  1.9205000E-03  1.9691200E-03   89.84944       7.169266    
  1.9691200E-03  2.0189700E-03   86.70967       4.632251    
  2.0189700E-03  2.1224800E-03   84.52422       4.442973    
  2.1224800E-03  2.2313001E-03   79.71765       3.282045    
  2.2313001E-03  2.2688799E-03   63.70760       7.573782    
  2.2688799E-03  2.3068599E-03   67.34214       9.187504    
  2.3068599E-03  2.3457000E-03   73.64468       9.249788    
  2.3457000E-03  2.3652499E-03   68.69212       13.95086    
  2.3652499E-03  2.3852000E-03   82.85142       15.33880    
  2.3852000E-03  2.4251300E-03   71.69986       9.538072    
  2.4251300E-03  2.4659701E-03   66.52605       11.20992    
  2.4659701E-03  2.5923999E-03   52.07874       7.757807    
  2.5923999E-03  2.7253199E-03   53.33681       7.302887    
  2.7253199E-03  2.8650500E-03   42.35428       8.390337    
  2.8650500E-03  3.0119400E-03   41.66654       5.039077    
  3.0119400E-03  3.0881900E-03   42.18105       5.678359    
  3.0881900E-03  3.1663701E-03   38.90066       10.61066    
  3.1663701E-03  3.2465300E-03   33.25093       8.220679    
  3.2465300E-03  3.3287101E-03   32.47204       9.624537    
  3.3287101E-03  3.4993801E-03   34.99763       6.630598    
  3.4993801E-03  3.6787901E-03   28.82615       5.953768    
  3.6787901E-03  3.8674099E-03   30.46421       5.799817    
  3.8674099E-03  4.0656999E-03   24.09031       6.581890    
  4.0656999E-03  4.2741499E-03   26.01211       9.543609    
  4.2741499E-03  4.4932901E-03   23.31837       6.835908    
  4.4932901E-03  4.6070400E-03   23.71998       6.873006    
  4.6070400E-03  4.7236700E-03   25.08584       7.721123    
  4.7236700E-03  4.8432499E-03   21.76688       8.762042    
  4.8432499E-03  4.9658502E-03   20.00686       8.845041    
  4.9658502E-03  5.2204598E-03   18.41422       8.116833    
  5.2204598E-03  5.4881200E-03   17.08980       6.314968    
  5.4881200E-03  5.7695000E-03   15.75089       6.798565    
  5.7695000E-03  5.9155500E-03   17.84108       7.539171    
  5.9155500E-03  6.0653100E-03   14.99425       9.194277    
  6.0653100E-03  6.2188501E-03   13.18989       10.57946    
  6.2188501E-03  6.3762800E-03   13.96686       9.567245    
  6.3762800E-03  6.5377001E-03   13.47961       8.945554    
  6.5377001E-03  6.5923799E-03   12.66066       16.98427    
  6.5923799E-03  6.6475999E-03   9.470641       19.11231    
  6.6475999E-03  6.7031998E-03   11.33361       30.14194    
  6.7031998E-03  6.8728901E-03   13.80912       7.937880    
  6.8728901E-03  7.0468802E-03   11.45094       9.888539    
  7.0468802E-03  7.2252699E-03   11.04555       10.50831    
  7.2252699E-03  7.4081798E-03   10.71331       9.359380    
  7.4081798E-03  7.5957198E-03   10.83426       12.09338    
  7.5957198E-03  7.7880099E-03   9.717128       14.17937    
  7.7880099E-03  7.9851598E-03   8.870241       14.14157    
  7.9851598E-03  8.1873098E-03   9.780448       9.702374    
  8.1873098E-03  8.3945701E-03   9.610439       8.567340    
  8.3945701E-03  8.6070802E-03   7.911980       13.05262    
  8.6070802E-03  8.8249696E-03   8.822662       10.95700    
  8.8249696E-03  9.0483697E-03   8.214169       12.03535    
  9.0483697E-03  9.2774397E-03   7.735136       10.60422    
  9.2774397E-03  9.5122904E-03   7.421936       10.97154    
  9.5122904E-03  9.7530996E-03   8.512590       11.14551    
  9.7530996E-03  9.9999998E-03   6.725284       8.779202    
  9.9999998E-03  1.0253200E-02   7.417854       10.82677    
  1.0253200E-02  1.0512700E-02   6.541931       11.55409    
  1.0512700E-02  1.0778800E-02   7.543870       6.681797    
  1.0778800E-02  1.1051700E-02   5.679640       13.25108    
  1.1051700E-02  1.1331500E-02   5.528215       13.44085    
  1.1331500E-02  1.1618300E-02   6.172803       15.57757    
  1.1618300E-02  1.1912500E-02   5.029140       13.63387    
  1.1912500E-02  1.2214000E-02   6.151399       11.14201    
  1.2214000E-02  1.2523200E-02   5.989519       12.08027    
  1.2523200E-02  1.2840200E-02   5.371096       11.55020    
  1.2840200E-02  1.3165300E-02   4.838447       11.83349    
  1.3165300E-02  1.3498600E-02   4.607444       12.57871    
  1.3498600E-02  1.3840300E-02   5.181409       15.67784    
  1.3840300E-02  1.4190700E-02   4.531065       9.957192    
  1.4190700E-02  1.4549900E-02   4.886423       9.820252    
  1.4549900E-02  1.4918300E-02   5.437689       13.46367    
  1.4918300E-02  1.5295900E-02   3.861966       14.39514    
  1.5295900E-02  1.5683100E-02   4.822727       10.73279    
  1.5683100E-02  1.6080100E-02   4.395201       15.37305    
  1.6080100E-02  1.6487200E-02   4.754732       8.287869    
  1.6487200E-02  1.6904600E-02   4.797286       11.28062    
  1.6904600E-02  1.7332500E-02   3.145012       17.36931    
  1.7332500E-02  1.7771300E-02   4.440989       12.61599    
  1.7771300E-02  1.8221200E-02   2.708659       17.40208    
  1.8221200E-02  1.8682500E-02   3.076600       18.29824    
  1.8682500E-02  1.9155400E-02   3.328974       13.85059    
  1.9155400E-02  1.9640300E-02   4.034596       19.34890    
  1.9640300E-02  2.0000000E-02   3.170588       14.81532    
