 # Detector n:  1  HeIInflux 
 # N. of energy intervals 260
  1.0000100E-14  2.0000000E-13  4.4420522E+10   19.52470    
  2.0000000E-13  2.9297300E-13  1.0438300E+11   20.39890    
  2.9297300E-13  4.2916701E-13  1.3392765E+11   9.218598    
  4.2916701E-13  6.2867300E-13  1.8099354E+11   6.835609    
  6.2867300E-13  9.2092198E-13  2.5787005E+11   5.913066    
  9.2092198E-13  1.3490300E-12  3.4320263E+11   4.985811    
  1.3490300E-12  1.9761499E-12  4.7996260E+11   3.134109    
  1.9761499E-12  2.8947901E-12  6.0654636E+11   3.037271    
  2.8947901E-12  4.2404799E-12  7.4417642E+11   1.573340    
  4.2404799E-12  6.2117499E-12  8.3537311E+11   1.343588    
  6.2117499E-12  9.0993801E-12  8.6891391E+11   1.122816    
  9.0993801E-12  1.3329400E-11  7.8800657E+11  0.8945158    
  1.3329400E-11  1.9525799E-11  5.9764939E+11  0.9338158    
  1.9525799E-11  2.8602700E-11  3.5825762E+11  0.7238748    
  2.8602700E-11  4.1899099E-11  1.6762772E+11   1.245187    
  4.1899099E-11  6.1376598E-11  6.6886504E+10   1.004286    
  6.1376598E-11  8.9908601E-11  3.0794602E+10  0.9751533    
  8.9908601E-11  1.3170399E-10  1.4999369E+10   1.291426    
  1.3170399E-10  1.9292901E-10  8.5588982E+09  0.7757409    
  1.9292901E-10  2.8261499E-10  5.4205123E+09  0.8232890    
  2.8261499E-10  4.1399401E-10  3.5183900E+09  0.7190984    
  4.1399401E-10  5.3157900E-10  2.5879724E+09  0.8706645    
  5.3157900E-10  6.2506200E-10  2.0945426E+09   1.304219    
  6.2506200E-10  6.8256001E-10  1.8311880E+09   1.449550    
  6.8256001E-10  8.3368101E-10  1.5823361E+09   1.147974    
  8.3368101E-10  8.7642499E-10  1.4045834E+09   2.408565    
  8.7642499E-10  1.1253500E-09  1.1955679E+09  0.8745186    
  1.1253500E-09  1.4449800E-09  9.3341389E+08  0.9615979    
  1.4449800E-09  1.8553900E-09  7.2270854E+08  0.8929200    
  1.8553900E-09  2.3823701E-09  5.6835354E+08  0.5691854    
  2.3823701E-09  3.0590199E-09  4.3888298E+08  0.6318098    
  3.0590199E-09  3.9278598E-09  3.3896618E+08  0.6284290    
  3.9278598E-09  5.0434799E-09  2.6971744E+08  0.8764669    
  5.0434799E-09  6.4759500E-09  2.0929899E+08  0.8066059    
  6.4759500E-09  8.3152898E-09  1.6312742E+08  0.7152237    
  8.3152898E-09  1.0677000E-08  1.2623341E+08  0.4522979    
  1.0677000E-08  1.3709600E-08  1.0121334E+08  0.6277753    
  1.3709600E-08  1.7603501E-08  7.7540344E+07  0.8762082    
  1.7603501E-08  2.2603301E-08  6.1024708E+07  0.8151072    
  2.2603301E-08  2.9023200E-08  4.8188508E+07  0.6607375    
  2.9023200E-08  3.7266499E-08  3.6973280E+07  0.7235188    
  3.7266499E-08  4.7851199E-08  2.8744454E+07  0.5883502    
  4.7851199E-08  6.1442101E-08  2.2705698E+07  0.8374513    
  6.1442101E-08  7.8893301E-08  1.7434862E+07  0.8620070    
  7.8893301E-08  1.0130100E-07  1.3658476E+07  0.7940537    
  1.0130100E-07  1.3007300E-07  1.0532897E+07  0.9009295    
  1.3007300E-07  1.6701701E-07   8265020.      0.8557614    
  1.6701701E-07  2.1445400E-07   6407428.      0.6953805    
  2.1445400E-07  2.7536399E-07   4912409.      0.7111153    
  2.7536399E-07  3.5357499E-07   3847335.      0.6884038    
  3.5357499E-07  4.5399901E-07   3007844.      0.8016881    
  4.5399901E-07  5.8294700E-07   2269487.      0.9770492    
  5.8294700E-07  7.4851800E-07   1793030.      0.9095568    
  7.4851800E-07  9.6111603E-07   1370249.      0.7262371    
  9.6111603E-07  1.2341000E-06   1074651.      0.7495256    
  1.2341000E-06  1.3638900E-06   893997.3      0.8153597    
  1.3638900E-06  1.5073300E-06   789498.6       1.280585    
  1.5073300E-06  1.5846100E-06   725969.6       1.602842    
  1.5846100E-06  1.6658601E-06   688783.5       1.727303    
  1.6658601E-06  1.8410600E-06   635082.2       1.086841    
  1.8410600E-06  2.0346799E-06   572303.7       1.290714    
  2.0346799E-06  2.2486699E-06   522126.0       1.519176    
  2.2486699E-06  2.4851699E-06   470654.3       1.251384    
  2.4851699E-06  2.6125899E-06   413360.6       1.851883    
  2.6125899E-06  2.7465401E-06   418306.8       1.522383    
  2.7465401E-06  2.8634900E-06   403829.5       2.320645    
  2.8634900E-06  3.0353899E-06   369981.2       2.706052    
  3.0353899E-06  3.3546301E-06   337443.8       1.300953    
  3.3546301E-06  3.7074401E-06   311983.8      0.9201774    
  3.7074401E-06  4.0973500E-06   264569.3       1.242416    
  4.0973500E-06  4.3074201E-06   249520.1       1.581525    
  4.3074201E-06  4.5282700E-06   235481.1       1.782592    
  4.5282700E-06  5.0045101E-06   222321.6       1.654323    
  5.0045101E-06  5.5308401E-06   209216.9       1.499973    
  5.5308401E-06  6.2672698E-06   155748.8      0.9385179    
  6.2672698E-06  7.1017398E-06   151734.4       1.029908    
  7.1017398E-06  8.0473301E-06   135895.8       1.160820    
  8.0473301E-06  9.1188203E-06   117245.8       1.029047    
  9.1188203E-06  1.0333000E-05   100922.6       1.021016    
  1.0333000E-05  1.1708800E-05   88164.85       1.034691    
  1.1708800E-05  1.3267800E-05   75131.47       1.075424    
  1.3267800E-05  1.5034400E-05   67400.19       1.318158    
  1.5034400E-05  1.7036200E-05   56611.24       1.306517    
  1.7036200E-05  1.9304500E-05   49955.18       1.294157    
  1.9304500E-05  2.1334799E-05   42414.72       1.191450    
  2.1334799E-05  2.1874899E-05   40109.73       2.651077    
  2.1874899E-05  2.3578599E-05   38843.70       1.435709    
  2.3578599E-05  2.4175501E-05   35581.95       3.345916    
  2.4175501E-05  2.4787500E-05   34545.02       2.818235    
  2.4787500E-05  2.6058400E-05   34456.80       1.540480    
  2.6058400E-05  2.8087899E-05   33486.28       1.661778    
  2.8087899E-05  3.1827800E-05   36125.25      0.9202606    
  3.1827800E-05  3.4306700E-05   23964.59       1.759246    
  3.4306700E-05  3.5175199E-05   11135.52       2.918772    
  3.5175199E-05  3.6065601E-05   11830.33       3.817386    
  3.6065601E-05  4.0867701E-05   15244.04       1.356819    
  4.0867701E-05  4.6309200E-05   16183.05       1.716806    
  4.6309200E-05  5.2475199E-05   15282.10       1.455542    
  5.2475199E-05  5.6562199E-05   13414.57       1.708971    
  5.6562199E-05  5.9462200E-05   12248.78       1.547638    
  5.9462200E-05  6.2510902E-05   11522.41       1.905869    
  6.2510902E-05  6.7379500E-05   11058.02       2.094564    
  6.7379500E-05  7.6350902E-05   10767.96       1.318794    
  7.6350902E-05  8.6516899E-05   8196.444       1.777782    
  8.6516899E-05  9.8036500E-05   4835.434       1.769348    
  9.8036500E-05  1.1109000E-04   5724.326       1.381074    
  1.1109000E-04  1.1678600E-04   5319.304       2.345399    
  1.1678600E-04  1.2277300E-04   3929.420       2.232985    
  1.2277300E-04  1.2906799E-04   5373.717       1.913604    
  1.2906799E-04  1.3568600E-04   5364.888       2.676760    
  1.3568600E-04  1.4264201E-04   4222.106       2.632362    
  1.4264201E-04  1.4995600E-04   3071.798       2.268115    
  1.4995600E-04  1.5764400E-04   2854.582       2.829954    
  1.5764400E-04  1.6163501E-04   2366.722       3.957835    
  1.6163501E-04  1.6572700E-04   2844.964       3.664700    
  1.6572700E-04  1.6992200E-04   2735.484       4.339959    
  1.6992200E-04  1.7422400E-04   2795.833       3.682816    
  1.7422400E-04  1.8315599E-04   2987.243       2.366359    
  1.8315599E-04  1.9254700E-04   2986.906       2.208603    
  1.9254700E-04  2.0241900E-04   2726.189       2.577413    
  2.0241900E-04  2.1279699E-04   2162.185       3.381291    
  2.1279699E-04  2.2370800E-04   2027.756       2.079221    
  2.2370800E-04  2.3517800E-04   2029.380       3.280246    
  2.3517800E-04  2.4723500E-04   2095.645       2.065197    
  2.4723500E-04  2.5991100E-04   1986.207       2.415938    
  2.5991100E-04  2.7323700E-04   2002.952       3.137309    
  2.7323700E-04  2.8015400E-04   1779.885       3.358951    
  2.8015400E-04  2.8724599E-04   1449.976       3.340149    
  2.8724599E-04  2.9451799E-04   1467.946       3.963914    
  2.9451799E-04  3.0197401E-04   1425.208       4.436214    
  3.0197401E-04  3.0961799E-04   1342.880       4.995201    
  3.0961799E-04  3.1745600E-04   1331.593       4.197712    
  3.1745600E-04  3.3373301E-04   1335.311       2.244959    
  3.3373301E-04  3.5084400E-04   1385.221       1.988934    
  3.5084400E-04  3.6883200E-04   1104.292       3.691435    
  3.6883200E-04  3.8774201E-04   1066.936       2.761488    
  3.8774201E-04  4.0762199E-04   1080.737       2.845480    
  4.0762199E-04  4.2852099E-04   849.4412       2.425333    
  4.2852099E-04  4.5049199E-04   778.9717       1.806027    
  4.5049199E-04  4.7358900E-04   781.3856       3.162668    
  4.7358900E-04  4.9787102E-04   745.2736       2.650656    
  4.9787102E-04  5.1047403E-04   764.1329       4.542293    
  5.1047403E-04  5.2339700E-04   734.3807       3.432257    
  5.2339700E-04  5.3664698E-04   571.0974       4.319603    
  5.3664698E-04  5.5023201E-04   641.5339       3.677986    
  5.5023201E-04  5.7844300E-04   572.0360       2.107113    
  5.7844300E-04  6.0810102E-04   536.4276       4.369820    
  6.0810102E-04  6.3927902E-04   465.3856       3.466383    
  6.3927902E-04  6.7205500E-04   388.8812       3.761735    
  6.7205500E-04  7.0651202E-04   384.8857       2.665468    
  7.0651202E-04  7.4273598E-04   377.8280       3.323249    
  7.4273598E-04  7.8081700E-04   321.9053       2.753179    
  7.8081700E-04  8.2085002E-04   237.1629       3.605144    
  8.2085002E-04  8.6293602E-04   222.3941       3.100483    
  8.6293602E-04  9.0717903E-04   203.0509       3.457082    
  9.0717903E-04  9.5369201E-04   188.7009       3.547869    
  9.5369201E-04  9.6163998E-04   155.7404       8.264079    
  9.6163998E-04  9.7783399E-04   174.4331       7.306166    
  9.7783399E-04  1.0025901E-03   154.9930       3.637618    
  1.0025901E-03  1.0539900E-03   145.8286       2.666568    
  1.0539900E-03  1.1080300E-03   129.1144       4.137999    
  1.1080300E-03  1.1648400E-03   134.0639       3.161848    
  1.1648400E-03  1.1943300E-03   116.5425       5.059376    
  1.1943300E-03  1.2245600E-03   124.9230       5.718260    
  1.2245600E-03  1.2873500E-03   121.1115       4.579741    
  1.2873500E-03  1.3533500E-03   112.6343       3.524674    
  1.3533500E-03  1.4227401E-03   109.5995       3.657251    
  1.4227401E-03  1.4956900E-03   100.4892       3.737837    
  1.4956900E-03  1.5335500E-03   103.8058       4.443053    
  1.5335500E-03  1.5723699E-03   88.53777       6.199089    
  1.5723699E-03  1.6121800E-03   97.53977       4.138755    
  1.6121800E-03  1.6529900E-03   95.63126       4.365156    
  1.6529900E-03  1.7377400E-03   89.52605       4.024580    
  1.7377400E-03  1.8268300E-03   83.42622       5.856896    
  1.8268300E-03  1.8730800E-03   77.25127       5.849456    
  1.8730800E-03  1.9205000E-03   67.22056       6.794081    
  1.9205000E-03  1.9691200E-03   70.36357       7.028318    
  1.9691200E-03  2.0189700E-03   75.66965       5.597898    
  2.0189700E-03  2.1224800E-03   67.11623       3.107348    
  2.1224800E-03  2.2313001E-03   54.77492       5.052315    
  2.2313001E-03  2.2688799E-03   58.25214       4.632123    
  2.2688799E-03  2.3068599E-03   51.25750       10.41724    
  2.3068599E-03  2.3457000E-03   53.52158       6.992039    
  2.3457000E-03  2.3652499E-03   63.04850       10.68841    
  2.3652499E-03  2.3852000E-03   55.46186       10.20261    
  2.3852000E-03  2.4251300E-03   53.94379       5.843886    
  2.4251300E-03  2.4659701E-03   52.80372       7.004958    
  2.4659701E-03  2.5923999E-03   46.44778       4.341662    
  2.5923999E-03  2.7253199E-03   41.89312       6.555343    
  2.7253199E-03  2.8650500E-03   36.79154       4.241761    
  2.8650500E-03  3.0119400E-03   33.54601       5.046597    
  3.0119400E-03  3.0881900E-03   29.00621       8.423437    
  3.0881900E-03  3.1663701E-03   32.33202       6.525887    
  3.1663701E-03  3.2465300E-03   27.53661       7.727499    
  3.2465300E-03  3.3287101E-03   26.41599       7.511118    
  3.3287101E-03  3.4993801E-03   25.38234       5.450138    
  3.4993801E-03  3.6787901E-03   21.70613       5.816659    
  3.6787901E-03  3.8674099E-03   20.30847       5.102822    
  3.8674099E-03  4.0656999E-03   17.50029       5.927899    
  4.0656999E-03  4.2741499E-03   17.43175       6.581519    
  4.2741499E-03  4.4932901E-03   16.20236       4.702433    
  4.4932901E-03  4.6070400E-03   16.88880       10.56300    
  4.6070400E-03  4.7236700E-03   15.85572       8.997910    
  4.7236700E-03  4.8432499E-03   17.37178       9.553021    
  4.8432499E-03  4.9658502E-03   13.86153       7.224217    
  4.9658502E-03  5.2204598E-03   14.86081       5.815431    
  5.2204598E-03  5.4881200E-03   12.68257       5.890004    
  5.4881200E-03  5.7695000E-03   11.32366       4.938032    
  5.7695000E-03  5.9155500E-03   12.57310       8.923026    
  5.9155500E-03  6.0653100E-03   11.74012       7.999762    
  6.0653100E-03  6.2188501E-03   10.46128       9.956811    
  6.2188501E-03  6.3762800E-03   10.04324       9.221057    
  6.3762800E-03  6.5377001E-03   10.35056       9.418272    
  6.5377001E-03  6.5923799E-03   6.477112       17.72327    
  6.5923799E-03  6.6475999E-03   6.685610       17.53103    
  6.6475999E-03  6.7031998E-03   8.191665       18.46866    
  6.7031998E-03  6.8728901E-03   10.33463       7.091884    
  6.8728901E-03  7.0468802E-03   8.523222       11.97041    
  7.0468802E-03  7.2252699E-03   9.008088       12.98576    
  7.2252699E-03  7.4081798E-03   7.690419       9.058247    
  7.4081798E-03  7.5957198E-03   7.246673       8.401239    
  7.5957198E-03  7.7880099E-03   7.642779       11.19542    
  7.7880099E-03  7.9851598E-03   6.322313       10.55788    
  7.9851598E-03  8.1873098E-03   5.422295       13.34861    
  8.1873098E-03  8.3945701E-03   6.673868       10.48634    
  8.3945701E-03  8.6070802E-03   6.509404       8.538007    
  8.6070802E-03  8.8249696E-03   6.200055       8.266644    
  8.8249696E-03  9.0483697E-03   6.169775       13.16020    
  9.0483697E-03  9.2774397E-03   5.673777       11.49665    
  9.2774397E-03  9.5122904E-03   5.046281       12.69587    
  9.5122904E-03  9.7530996E-03   4.910127       12.53272    
  9.7530996E-03  9.9999998E-03   5.721063       8.403665    
  9.9999998E-03  1.0253200E-02   4.859980       11.02858    
  1.0253200E-02  1.0512700E-02   6.154810       11.72356    
  1.0512700E-02  1.0778800E-02   4.746182       11.04569    
  1.0778800E-02  1.1051700E-02   5.370619       10.15089    
  1.1051700E-02  1.1331500E-02   4.699883       9.664216    
  1.1331500E-02  1.1618300E-02   5.380487       10.08025    
  1.1618300E-02  1.1912500E-02   5.069864       10.06823    
  1.1912500E-02  1.2214000E-02   3.777890       13.89998    
  1.2214000E-02  1.2523200E-02   3.493065       13.35490    
  1.2523200E-02  1.2840200E-02   3.808807       13.50415    
  1.2840200E-02  1.3165300E-02   3.423209       13.56182    
  1.3165300E-02  1.3498600E-02   3.800911       9.714822    
  1.3498600E-02  1.3840300E-02   4.269318       12.79034    
  1.3840300E-02  1.4190700E-02   3.397677       8.804825    
  1.4190700E-02  1.4549900E-02   3.359048       10.64150    
  1.4549900E-02  1.4918300E-02   2.589473       15.01133    
  1.4918300E-02  1.5295900E-02   3.167881       10.18730    
  1.5295900E-02  1.5683100E-02   2.720081       14.27330    
  1.5683100E-02  1.6080100E-02   2.282827       12.87258    
  1.6080100E-02  1.6487200E-02   3.275811       11.91837    
  1.6487200E-02  1.6904600E-02   2.651257       10.65115    
  1.6904600E-02  1.7332500E-02   3.140102       9.539421    
  1.7332500E-02  1.7771300E-02   2.541852       13.82238    
  1.7771300E-02  1.8221200E-02   2.610311       9.666509    
  1.8221200E-02  1.8682500E-02   2.284870       13.53282    
  1.8682500E-02  1.9155400E-02   1.741822       14.57152    
  1.9155400E-02  1.9640300E-02   1.485898       13.68464    
  1.9640300E-02  2.0000000E-02   2.074281       12.56160    
