 # Detector n:  1  HeIInflux 
 # N. of energy intervals 260
  1.0000100E-14  2.0000000E-13  3.1986678E+10   15.88899    
  2.0000000E-13  2.9297300E-13  5.4756848E+10   14.82428    
  2.9297300E-13  4.2916701E-13  1.0998733E+11   19.05996    
  4.2916701E-13  6.2867300E-13  1.5819846E+11   7.238717    
  6.2867300E-13  9.2092198E-13  2.1500713E+11   8.788314    
  9.2092198E-13  1.3490300E-12  2.7897453E+11   5.473625    
  1.3490300E-12  1.9761499E-12  3.6193727E+11   2.953101    
  1.9761499E-12  2.8947901E-12  4.7557752E+11   3.506474    
  2.8947901E-12  4.2404799E-12  5.7697934E+11   1.640769    
  4.2404799E-12  6.2117499E-12  6.6276865E+11   2.019724    
  6.2117499E-12  9.0993801E-12  6.5781832E+11   1.821314    
  9.0993801E-12  1.3329400E-11  6.2662502E+11   1.272313    
  1.3329400E-11  1.9525799E-11  4.6963127E+11   1.416158    
  1.9525799E-11  2.8602700E-11  2.8500351E+11  0.9957116    
  2.8602700E-11  4.1899099E-11  1.3370574E+11   1.377502    
  4.1899099E-11  6.1376598E-11  5.4229586E+10   1.749113    
  6.1376598E-11  8.9908601E-11  2.4993522E+10   1.827879    
  8.9908601E-11  1.3170399E-10  1.2683870E+10   1.731915    
  1.3170399E-10  1.9292901E-10  7.2774994E+09   1.532780    
  1.9292901E-10  2.8261499E-10  4.6010501E+09   1.447070    
  2.8261499E-10  4.1399401E-10  3.0071081E+09  0.9816126    
  4.1399401E-10  5.3157900E-10  2.1424399E+09   1.078328    
  5.3157900E-10  6.2506200E-10  1.7814254E+09   1.083541    
  6.2506200E-10  6.8256001E-10  1.5578574E+09   1.564249    
  6.8256001E-10  8.3368101E-10  1.3712709E+09   1.047693    
  8.3368101E-10  8.7642499E-10  1.1243474E+09   2.641796    
  8.7642499E-10  1.1253500E-09  1.0177853E+09   1.016093    
  1.1253500E-09  1.4449800E-09  7.9712877E+08  0.8291974    
  1.4449800E-09  1.8553900E-09  6.1635654E+08  0.7354466    
  1.8553900E-09  2.3823701E-09  4.8613078E+08  0.7069982    
  2.3823701E-09  3.0590199E-09  3.7742682E+08   1.031227    
  3.0590199E-09  3.9278598E-09  2.9468083E+08  0.6986902    
  3.9278598E-09  5.0434799E-09  2.3118323E+08   1.040410    
  5.0434799E-09  6.4759500E-09  1.8087722E+08  0.9143528    
  6.4759500E-09  8.3152898E-09  1.4012834E+08   1.458082    
  8.3152898E-09  1.0677000E-08  1.0852246E+08   1.111461    
  1.0677000E-08  1.3709600E-08  8.4379848E+07   1.120412    
  1.3709600E-08  1.7603501E-08  6.6598428E+07   1.055915    
  1.7603501E-08  2.2603301E-08  5.2582532E+07  0.7878917    
  2.2603301E-08  2.9023200E-08  4.0736484E+07   1.252053    
  2.9023200E-08  3.7266499E-08  3.1725086E+07  0.5369035    
  3.7266499E-08  4.7851199E-08  2.4693692E+07  0.8770999    
  4.7851199E-08  6.1442101E-08  1.9217112E+07  0.4757318    
  6.1442101E-08  7.8893301E-08  1.5284628E+07   1.114613    
  7.8893301E-08  1.0130100E-07  1.1872282E+07   1.135901    
  1.0130100E-07  1.3007300E-07   9112247.       1.064978    
  1.3007300E-07  1.6701701E-07   7134543.      0.8894095    
  1.6701701E-07  2.1445400E-07   5602474.      0.8511683    
  2.1445400E-07  2.7536399E-07   4278312.      0.9572629    
  2.7536399E-07  3.5357499E-07   3320673.      0.8815811    
  3.5357499E-07  4.5399901E-07   2594505.      0.8960472    
  4.5399901E-07  5.8294700E-07   1983071.      0.7480239    
  5.8294700E-07  7.4851800E-07   1549574.      0.9183779    
  7.4851800E-07  9.6111603E-07   1181613.      0.9737666    
  9.6111603E-07  1.2341000E-06   908428.8      0.6325531    
  1.2341000E-06  1.3638900E-06   779341.1       1.081757    
  1.3638900E-06  1.5073300E-06   691775.9       1.322231    
  1.5073300E-06  1.5846100E-06   647456.9       1.562272    
  1.5846100E-06  1.6658601E-06   600266.6       1.567786    
  1.6658601E-06  1.8410600E-06   563066.1       1.351838    
  1.8410600E-06  2.0346799E-06   501355.6       1.183552    
  2.0346799E-06  2.2486699E-06   453465.8       1.567780    
  2.2486699E-06  2.4851699E-06   412790.8       1.597431    
  2.4851699E-06  2.6125899E-06   373039.4       2.369428    
  2.6125899E-06  2.7465401E-06   342747.7       2.244324    
  2.7465401E-06  2.8634900E-06   340323.9       1.696029    
  2.8634900E-06  3.0353899E-06   316985.2       1.597509    
  3.0353899E-06  3.3546301E-06   297080.9       1.907101    
  3.3546301E-06  3.7074401E-06   269714.1       1.410822    
  3.7074401E-06  4.0973500E-06   239650.0       1.498235    
  4.0973500E-06  4.3074201E-06   217884.5       2.852280    
  4.3074201E-06  4.5282700E-06   206182.0       1.910672    
  4.5282700E-06  5.0045101E-06   194701.9       1.680178    
  5.0045101E-06  5.5308401E-06   189896.4       1.663963    
  5.5308401E-06  6.2672698E-06   135001.1       1.504432    
  6.2672698E-06  7.1017398E-06   133086.2       1.651603    
  7.1017398E-06  8.0473301E-06   115273.9       1.812911    
  8.0473301E-06  9.1188203E-06   105277.4       1.163563    
  9.1188203E-06  1.0333000E-05   90344.85       1.537112    
  1.0333000E-05  1.1708800E-05   77749.26       1.439916    
  1.1708800E-05  1.3267800E-05   66859.41       1.522222    
  1.3267800E-05  1.5034400E-05   59101.91       1.675840    
  1.5034400E-05  1.7036200E-05   49720.38       1.792045    
  1.7036200E-05  1.9304500E-05   44233.59       1.427413    
  1.9304500E-05  2.1334799E-05   38383.86       1.874334    
  2.1334799E-05  2.1874899E-05   36242.69       3.337397    
  2.1874899E-05  2.3578599E-05   34453.48       2.197976    
  2.3578599E-05  2.4175501E-05   30994.14       2.626155    
  2.4175501E-05  2.4787500E-05   32224.82       3.386859    
  2.4787500E-05  2.6058400E-05   29776.34       2.199666    
  2.6058400E-05  2.8087899E-05   28701.17       2.268333    
  2.8087899E-05  3.1827800E-05   32251.54       2.048666    
  3.1827800E-05  3.4306700E-05   21601.33       1.672468    
  3.4306700E-05  3.5175199E-05   10551.78       5.990169    
  3.5175199E-05  3.6065601E-05   10267.28       3.698710    
  3.6065601E-05  4.0867701E-05   13606.91       2.078452    
  4.0867701E-05  4.6309200E-05   14509.05       1.877328    
  4.6309200E-05  5.2475199E-05   13305.51       1.425718    
  5.2475199E-05  5.6562199E-05   11899.24       1.984513    
  5.6562199E-05  5.9462200E-05   11383.67       1.812084    
  5.9462200E-05  6.2510902E-05   10752.97       1.423229    
  6.2510902E-05  6.7379500E-05   10283.83       2.284061    
  6.7379500E-05  7.6350902E-05   9356.405       1.409048    
  7.6350902E-05  8.6516899E-05   7420.234       1.363191    
  8.6516899E-05  9.8036500E-05   4098.404       2.607501    
  9.8036500E-05  1.1109000E-04   4830.204       2.028322    
  1.1109000E-04  1.1678600E-04   4815.471       3.779411    
  1.1678600E-04  1.2277300E-04   3557.483       4.267449    
  1.2277300E-04  1.2906799E-04   4598.680       2.304455    
  1.2906799E-04  1.3568600E-04   4859.261       2.717550    
  1.3568600E-04  1.4264201E-04   3862.580       2.416431    
  1.4264201E-04  1.4995600E-04   2777.490       3.993090    
  1.4995600E-04  1.5764400E-04   2627.633       4.161364    
  1.5764400E-04  1.6163501E-04   2008.442       4.085478    
  1.6163501E-04  1.6572700E-04   2547.793       4.850951    
  1.6572700E-04  1.6992200E-04   2512.462       5.968347    
  1.6992200E-04  1.7422400E-04   2651.181       3.510782    
  1.7422400E-04  1.8315599E-04   2759.883       3.882641    
  1.8315599E-04  1.9254700E-04   2583.876       2.138877    
  1.9254700E-04  2.0241900E-04   2334.679       3.513202    
  2.0241900E-04  2.1279699E-04   1809.706       2.411608    
  2.1279699E-04  2.2370800E-04   1908.403       2.936711    
  2.2370800E-04  2.3517800E-04   1752.148       4.069079    
  2.3517800E-04  2.4723500E-04   1718.031       2.405796    
  2.4723500E-04  2.5991100E-04   1694.591       2.597619    
  2.5991100E-04  2.7323700E-04   1779.778       2.519001    
  2.7323700E-04  2.8015400E-04   1573.428       4.908915    
  2.8015400E-04  2.8724599E-04   1303.981       6.393105    
  2.8724599E-04  2.9451799E-04   1318.487       4.884700    
  2.9451799E-04  3.0197401E-04   1332.603       4.737045    
  3.0197401E-04  3.0961799E-04   1295.388       4.624377    
  3.0961799E-04  3.1745600E-04   1280.101       2.996978    
  3.1745600E-04  3.3373301E-04   1165.808       3.239742    
  3.3373301E-04  3.5084400E-04   1146.682       1.706396    
  3.5084400E-04  3.6883200E-04   1032.224       2.908124    
  3.6883200E-04  3.8774201E-04   1003.363       3.627875    
  3.8774201E-04  4.0762199E-04   964.6555       3.088068    
  4.0762199E-04  4.2852099E-04   784.0643       4.342615    
  4.2852099E-04  4.5049199E-04   681.4114       2.943907    
  4.5049199E-04  4.7358900E-04   665.6494       2.419533    
  4.7358900E-04  4.9787102E-04   658.2745       5.627509    
  4.9787102E-04  5.1047403E-04   696.2771       4.548214    
  5.1047403E-04  5.2339700E-04   635.4025       4.821211    
  5.2339700E-04  5.3664698E-04   516.8134       4.185765    
  5.3664698E-04  5.5023201E-04   536.8431       5.523935    
  5.5023201E-04  5.7844300E-04   495.1397       4.264407    
  5.7844300E-04  6.0810102E-04   492.1581       3.498783    
  6.0810102E-04  6.3927902E-04   432.4641       2.706715    
  6.3927902E-04  6.7205500E-04   357.9520       2.564962    
  6.7205500E-04  7.0651202E-04   390.6808       4.628236    
  7.0651202E-04  7.4273598E-04   309.1244       3.908755    
  7.4273598E-04  7.8081700E-04   305.4614       3.840063    
  7.8081700E-04  8.2085002E-04   219.8383       3.979636    
  8.2085002E-04  8.6293602E-04   203.7412       5.478268    
  8.6293602E-04  9.0717903E-04   197.4717       4.595301    
  9.0717903E-04  9.5369201E-04   168.7568       3.283138    
  9.5369201E-04  9.6163998E-04   185.3668       11.92031    
  9.6163998E-04  9.7783399E-04   145.4592       5.720921    
  9.7783399E-04  1.0025901E-03   154.3580       6.701265    
  1.0025901E-03  1.0539900E-03   141.1560       3.762327    
  1.0539900E-03  1.1080300E-03   127.6681       4.051839    
  1.1080300E-03  1.1648400E-03   119.9828       6.094652    
  1.1648400E-03  1.1943300E-03   95.92657       4.764544    
  1.1943300E-03  1.2245600E-03   109.9242       5.932668    
  1.2245600E-03  1.2873500E-03   107.0659       4.192569    
  1.2873500E-03  1.3533500E-03   96.04695       4.129553    
  1.3533500E-03  1.4227401E-03   101.8678       5.734646    
  1.4227401E-03  1.4956900E-03   91.79519       4.547156    
  1.4956900E-03  1.5335500E-03   78.52151       5.219674    
  1.5335500E-03  1.5723699E-03   91.49282       5.733199    
  1.5723699E-03  1.6121800E-03   92.45110       6.817742    
  1.6121800E-03  1.6529900E-03   81.56379       6.931911    
  1.6529900E-03  1.7377400E-03   78.94688       5.781926    
  1.7377400E-03  1.8268300E-03   73.21338       5.606747    
  1.8268300E-03  1.8730800E-03   80.31974       5.620934    
  1.8730800E-03  1.9205000E-03   67.41204       7.760907    
  1.9205000E-03  1.9691200E-03   67.81585       6.564435    
  1.9691200E-03  2.0189700E-03   66.90887       8.496865    
  2.0189700E-03  2.1224800E-03   66.65694       5.547859    
  2.1224800E-03  2.2313001E-03   50.88066       6.094525    
  2.2313001E-03  2.2688799E-03   53.65875       8.198727    
  2.2688799E-03  2.3068599E-03   43.04337       9.285914    
  2.3068599E-03  2.3457000E-03   51.58930       10.80657    
  2.3457000E-03  2.3652499E-03   55.27334       7.226485    
  2.3652499E-03  2.3852000E-03   59.65574       13.42735    
  2.3852000E-03  2.4251300E-03   44.77094       6.962878    
  2.4251300E-03  2.4659701E-03   47.10818       8.298794    
  2.4659701E-03  2.5923999E-03   43.06750       5.919254    
  2.5923999E-03  2.7253199E-03   36.28400       6.910431    
  2.7253199E-03  2.8650500E-03   31.65299       4.759653    
  2.8650500E-03  3.0119400E-03   28.72057       9.153797    
  3.0119400E-03  3.0881900E-03   25.50889       9.197911    
  3.0881900E-03  3.1663701E-03   23.31010       9.915524    
  3.1663701E-03  3.2465300E-03   26.84808       7.545691    
  3.2465300E-03  3.3287101E-03   25.24913       6.716637    
  3.3287101E-03  3.4993801E-03   22.47928       8.250180    
  3.4993801E-03  3.6787901E-03   20.06776       6.812969    
  3.6787901E-03  3.8674099E-03   17.94950       7.203795    
  3.8674099E-03  4.0656999E-03   16.37423       9.544553    
  4.0656999E-03  4.2741499E-03   16.19955       4.882277    
  4.2741499E-03  4.4932901E-03   14.35794       8.952515    
  4.4932901E-03  4.6070400E-03   15.13849       9.499363    
  4.6070400E-03  4.7236700E-03   12.51416       12.82480    
  4.7236700E-03  4.8432499E-03   9.694011       13.14425    
  4.8432499E-03  4.9658502E-03   11.33873       5.966626    
  4.9658502E-03  5.2204598E-03   11.88059       6.691276    
  5.2204598E-03  5.4881200E-03   9.960107       7.131504    
  5.4881200E-03  5.7695000E-03   9.597923       7.658876    
  5.7695000E-03  5.9155500E-03   8.633141       9.408121    
  5.9155500E-03  6.0653100E-03   8.834426       12.47879    
  6.0653100E-03  6.2188501E-03   9.904030       12.73507    
  6.2188501E-03  6.3762800E-03   9.330845       10.72442    
  6.3762800E-03  6.5377001E-03   7.450174       7.445623    
  6.5377001E-03  6.5923799E-03   11.02430       15.61678    
  6.5923799E-03  6.6475999E-03   11.87530       21.92349    
  6.6475999E-03  6.7031998E-03   5.650224       18.01912    
  6.7031998E-03  6.8728901E-03   7.990792       8.910320    
  6.8728901E-03  7.0468802E-03   8.210332       13.48753    
  7.0468802E-03  7.2252699E-03   7.885153       12.44905    
  7.2252699E-03  7.4081798E-03   7.412496       10.32152    
  7.4081798E-03  7.5957198E-03   6.975585       8.176597    
  7.5957198E-03  7.7880099E-03   6.413429       14.55057    
  7.7880099E-03  7.9851598E-03   5.202870       15.61420    
  7.9851598E-03  8.1873098E-03   5.701331       8.956023    
  8.1873098E-03  8.3945701E-03   4.742001       12.87391    
  8.3945701E-03  8.6070802E-03   5.768601       10.00388    
  8.6070802E-03  8.8249696E-03   5.567278       12.61884    
  8.8249696E-03  9.0483697E-03   3.481097       15.86926    
  9.0483697E-03  9.2774397E-03   4.660220       11.24867    
  9.2774397E-03  9.5122904E-03   4.422668       14.03927    
  9.5122904E-03  9.7530996E-03   4.845046       12.65823    
  9.7530996E-03  9.9999998E-03   3.786330       11.95327    
  9.9999998E-03  1.0253200E-02   5.611786       14.31431    
  1.0253200E-02  1.0512700E-02   4.005731       10.90985    
  1.0512700E-02  1.0778800E-02   5.203058       11.64297    
  1.0778800E-02  1.1051700E-02   3.965834       11.68672    
  1.1051700E-02  1.1331500E-02   4.273808       10.25558    
  1.1331500E-02  1.1618300E-02   3.280678       17.80338    
  1.1618300E-02  1.1912500E-02   3.163961       10.16437    
  1.1912500E-02  1.2214000E-02   4.532608       12.36383    
  1.2214000E-02  1.2523200E-02   3.036891       19.02619    
  1.2523200E-02  1.2840200E-02   3.266723       12.44052    
  1.2840200E-02  1.3165300E-02   2.305653       16.83671    
  1.3165300E-02  1.3498600E-02   2.196182       15.29208    
  1.3498600E-02  1.3840300E-02   2.731782       15.78557    
  1.3840300E-02  1.4190700E-02   3.008922       10.31850    
  1.4190700E-02  1.4549900E-02   2.858120       12.14025    
  1.4549900E-02  1.4918300E-02   2.553653       6.882405    
  1.4918300E-02  1.5295900E-02   2.211446       21.56309    
  1.5295900E-02  1.5683100E-02   2.361452       14.42966    
  1.5683100E-02  1.6080100E-02   2.000566       17.67340    
  1.6080100E-02  1.6487200E-02   2.173326       13.12864    
  1.6487200E-02  1.6904600E-02   1.553615       13.21751    
  1.6904600E-02  1.7332500E-02   1.794055       17.31512    
  1.7332500E-02  1.7771300E-02   1.878828       14.10755    
  1.7771300E-02  1.8221200E-02   2.130671       16.58702    
  1.8221200E-02  1.8682500E-02   1.538933       18.56251    
  1.8682500E-02  1.9155400E-02   1.456077       13.68716    
  1.9155400E-02  1.9640300E-02   1.618107       10.24376    
  1.9640300E-02  2.0000000E-02   1.325525       18.87783    
