 # Detector n:            1   HeIInflux 
 # N. of energy intervals         260
  1.0000100E-14  2.0000000E-13  3.1063904E+10   27.66859    
  2.0000000E-13  2.9297300E-13  6.8457038E+10   12.02374    
  2.9297300E-13  4.2916701E-13  7.5631518E+10   10.83230    
  4.2916701E-13  6.2867300E-13  9.3158056E+10   8.024720    
  6.2867300E-13  9.2092198E-13  1.0966528E+11   13.70323    
  9.2092198E-13  1.3490300E-12  1.6026386E+11   3.559292    
  1.3490300E-12  1.9761499E-12  2.5302653E+11   3.596752    
  1.9761499E-12  2.8947901E-12  2.9729882E+11   1.806143    
  2.8947901E-12  4.2404799E-12  3.8144596E+11   2.998857    
  4.2404799E-12  6.2117499E-12  4.1775936E+11   3.111198    
  6.2117499E-12  9.0993801E-12  4.4424557E+11   1.693457    
  9.0993801E-12  1.3329400E-11  3.8631794E+11   2.233493    
  1.3329400E-11  1.9525799E-11  3.0370641E+11   1.300273    
  1.9525799E-11  2.8602700E-11  1.9005501E+11  0.9698046    
  2.8602700E-11  4.1899099E-11  9.2328870E+10   1.317008    
  4.1899099E-11  6.1376598E-11  3.6359291E+10   2.373929    
  6.1376598E-11  8.9908601E-11  1.4595884E+10   1.214969    
  8.9908601E-11  1.3170399E-10  5.2481260E+09   1.426015    
  1.3170399E-10  1.9292901E-10  1.9376420E+09   3.010895    
  1.9292901E-10  2.8261499E-10  8.3501094E+08   2.308272    
  2.8261499E-10  4.1399401E-10  4.9005674E+08   2.179925    
  4.1399401E-10  5.3157900E-10  3.3129939E+08   2.949084    
  5.3157900E-10  6.2506200E-10  2.7148272E+08  0.9251944    
  6.2506200E-10  6.8256001E-10  2.2922230E+08   4.800647    
  6.8256001E-10  8.3368101E-10  2.0267613E+08   1.753538    
  8.3368101E-10  8.7642499E-10  1.6952984E+08   5.032397    
  8.7642499E-10  1.1253500E-09  1.4406400E+08   4.352552    
  1.1253500E-09  1.4449800E-09  1.1257181E+08   1.912098    
  1.4449800E-09  1.8553900E-09  8.3069424E+07   3.689770    
  1.8553900E-09  2.3823701E-09  6.4695960E+07   3.915672    
  2.3823701E-09  3.0590199E-09  4.7406496E+07   1.573320    
  3.0590199E-09  3.9278598E-09  3.5561344E+07   1.705015    
  3.9278598E-09  5.0434799E-09  2.8463624E+07   1.689848    
  5.0434799E-09  6.4759500E-09  2.1238746E+07  0.6910369    
  6.4759500E-09  8.3152898E-09  1.6556376E+07   1.535529    
  8.3152898E-09  1.0677000E-08  1.2802070E+07   1.296523    
  1.0677000E-08  1.3709600E-08   9016899.       2.013342    
  1.3709600E-08  1.7603501E-08   6976398.       3.106086    
  1.7603501E-08  2.2603301E-08   5322580.       1.174002    
  2.2603301E-08  2.9023200E-08   4093702.       1.439570    
  2.9023200E-08  3.7266499E-08   3224884.       2.439325    
  3.7266499E-08  4.7851199E-08   2412579.       1.789756    
  4.7851199E-08  6.1442101E-08   1815927.       3.347113    
  6.1442101E-08  7.8893301E-08   1370932.       3.057589    
  7.8893301E-08  1.0130100E-07   1006264.       3.778004    
  1.0130100E-07  1.3007300E-07   766646.4       1.033266    
  1.3007300E-07  1.6701701E-07   618769.8       3.162894    
  1.6701701E-07  2.1445400E-07   447082.9      0.9904845    
  2.1445400E-07  2.7536399E-07   311353.3       3.459982    
  2.7536399E-07  3.5357499E-07   235326.6       3.727256    
  3.5357499E-07  4.5399901E-07   184808.1       4.462886    
  4.5399901E-07  5.8294700E-07   130972.5       2.347966    
  5.8294700E-07  7.4851800E-07   105186.2       2.209558    
  7.4851800E-07  9.6111603E-07   75862.98       1.142203    
  9.6111603E-07  1.2341000E-06   54468.89       2.738949    
  1.2341000E-06  1.3638900E-06   42580.00       7.624307    
  1.3638900E-06  1.5073300E-06   36355.40       1.836083    
  1.5073300E-06  1.5846100E-06   34154.69       14.69110    
  1.5846100E-06  1.6658601E-06   33130.32       3.264917    
  1.6658601E-06  1.8410600E-06   29375.02       8.965949    
  1.8410600E-06  2.0346799E-06   28714.81       4.034589    
  2.0346799E-06  2.2486699E-06   24315.90       2.671430    
  2.2486699E-06  2.4851699E-06   21706.75       5.720357    
  2.4851699E-06  2.6125899E-06   19337.74       7.869184    
  2.6125899E-06  2.7465401E-06   17976.75       9.134769    
  2.7465401E-06  2.8634900E-06   13562.60       10.46054    
  2.8634900E-06  3.0353899E-06   15027.78       2.295843    
  3.0353899E-06  3.3546301E-06   15500.45       9.688470    
  3.3546301E-06  3.7074401E-06   13770.39       3.999333    
  3.7074401E-06  4.0973500E-06   10566.09       2.665854    
  4.0973500E-06  4.3074201E-06   10324.74       8.445624    
  4.3074201E-06  4.5282700E-06   9549.579       2.981155    
  4.5282700E-06  5.0045101E-06   9588.374       4.767919    
  5.0045101E-06  5.5308401E-06   8669.285       5.603319    
  5.5308401E-06  6.2672698E-06   5661.502       7.519696    
  6.2672698E-06  7.1017398E-06   5983.174       5.601762    
  7.1017398E-06  8.0473301E-06   5009.621       4.007576    
  8.0473301E-06  9.1188203E-06   4222.975       2.467720    
  9.1188203E-06  1.0333000E-05   3543.281       6.153106    
  1.0333000E-05  1.1708800E-05   2778.619       2.358527    
  1.1708800E-05  1.3267800E-05   2556.617       7.223391    
  1.3267800E-05  1.5034400E-05   2048.403       7.503178    
  1.5034400E-05  1.7036200E-05   1753.542       2.657972    
  1.7036200E-05  1.9304500E-05   1376.211       4.087937    
  1.9304500E-05  2.1334799E-05   1198.571       13.81176    
  2.1334799E-05  2.1874899E-05   1070.860       19.28736    
  2.1874899E-05  2.3578599E-05   861.1139       9.607264    
  2.3578599E-05  2.4175501E-05   1019.676       23.21212    
  2.4175501E-05  2.4787500E-05   713.5482       10.61594    
  2.4787500E-05  2.6058400E-05   937.4469       10.76306    
  2.6058400E-05  2.8087899E-05   851.7714       12.39302    
  2.8087899E-05  3.1827800E-05   884.8956       7.998017    
  3.1827800E-05  3.4306700E-05   618.8303       8.801599    
  3.4306700E-05  3.5175199E-05   270.3747       32.20491    
  3.5175199E-05  3.6065601E-05   342.7599       22.32986    
  3.6065601E-05  4.0867701E-05   368.2246       4.201890    
  4.0867701E-05  4.6309200E-05   457.0479       11.17679    
  4.6309200E-05  5.2475199E-05   359.0823       14.11519    
  5.2475199E-05  5.6562199E-05   304.7191       8.454081    
  5.6562199E-05  5.9462200E-05   333.6545       9.293548    
  5.9462200E-05  6.2510902E-05   267.4146       14.22192    
  6.2510902E-05  6.7379500E-05   202.4405       4.209729    
  6.7379500E-05  7.6350902E-05   240.8811       4.803624    
  7.6350902E-05  8.6516899E-05   150.4852       11.94118    
  8.6516899E-05  9.8036500E-05   82.10982       4.928597    
  9.8036500E-05  1.1109000E-04   109.2373       5.373889    
  1.1109000E-04  1.1678600E-04   145.1005       12.87180    
  1.1678600E-04  1.2277300E-04   74.66628       23.46153    
  1.2277300E-04  1.2906799E-04   83.36089       11.45244    
  1.2906799E-04  1.3568600E-04   112.5137       5.416601    
  1.3568600E-04  1.4264201E-04   85.07128       11.46492    
  1.4264201E-04  1.4995600E-04   45.41286       28.48425    
  1.4995600E-04  1.5764400E-04   49.28360       17.43444    
  1.5764400E-04  1.6163501E-04   34.82859       30.21543    
  1.6163501E-04  1.6572700E-04   47.96669       28.49667    
  1.6572700E-04  1.6992200E-04   47.94271       24.24622    
  1.6992200E-04  1.7422400E-04   31.55367       14.98076    
  1.7422400E-04  1.8315599E-04   66.97831       25.89288    
  1.8315599E-04  1.9254700E-04   52.43311       21.97601    
  1.9254700E-04  2.0241900E-04   44.42292       38.57380    
  2.0241900E-04  2.1279699E-04   35.64259       17.48692    
  2.1279699E-04  2.2370800E-04   41.26298       27.46873    
  2.2370800E-04  2.3517800E-04   24.85937       12.77019    
  2.3517800E-04  2.4723500E-04   38.44312       16.60245    
  2.4723500E-04  2.5991100E-04   27.76030       22.04329    
  2.5991100E-04  2.7323700E-04   30.34891       30.98076    
  2.7323700E-04  2.8015400E-04   33.09771       30.10781    
  2.8015400E-04  2.8724599E-04   15.24489       24.64738    
  2.8724599E-04  2.9451799E-04   14.08863       33.31539    
  2.9451799E-04  3.0197401E-04   20.01736       34.55973    
  3.0197401E-04  3.0961799E-04   23.65178       15.81882    
  3.0961799E-04  3.1745600E-04   16.52172       43.76782    
  3.1745600E-04  3.3373301E-04   16.20884       21.16249    
  3.3373301E-04  3.5084400E-04   27.21673       12.11039    
  3.5084400E-04  3.6883200E-04   11.73952       8.978255    
  3.6883200E-04  3.8774201E-04   14.15687       22.14607    
  3.8774201E-04  4.0762199E-04   19.51820       12.29154    
  4.0762199E-04  4.2852099E-04   11.63778       13.36304    
  4.2852099E-04  4.5049199E-04   13.57093       24.79032    
  4.5049199E-04  4.7358900E-04   6.151550       33.08327    
  4.7358900E-04  4.9787102E-04   10.93627       21.29183    
  4.9787102E-04  5.1047403E-04   8.608736       50.17122    
  5.1047403E-04  5.2339700E-04   11.28479       38.26079    
  5.2339700E-04  5.3664698E-04   5.570561       26.86272    
  5.3664698E-04  5.5023201E-04   6.116109       27.98738    
  5.5023201E-04  5.7844300E-04   12.95945       12.28840    
  5.7844300E-04  6.0810102E-04   8.551877       18.43371    
  6.0810102E-04  6.3927902E-04   5.022094       35.22295    
  6.3927902E-04  6.7205500E-04   7.796916       9.513559    
  6.7205500E-04  7.0651202E-04   6.131809       20.41122    
  7.0651202E-04  7.4273598E-04   7.921932       9.282324    
  7.4273598E-04  7.8081700E-04   5.248482       22.04975    
  7.8081700E-04  8.2085002E-04   5.081952       22.59906    
  8.2085002E-04  8.6293602E-04   3.357076       30.00083    
  8.6293602E-04  9.0717903E-04   3.844689       24.05611    
  9.0717903E-04  9.5369201E-04   1.808386       28.93406    
  9.5369201E-04  9.6163998E-04   4.059377       41.70658    
  9.6163998E-04  9.7783399E-04   1.753880       36.42743    
  9.7783399E-04  1.0025901E-03   2.679729       9.216623    
  1.0025901E-03  1.0539900E-03   4.281003       20.33735    
  1.0539900E-03  1.1080300E-03   2.588439       15.15305    
  1.1080300E-03  1.1648400E-03   2.660095       28.67578    
  1.1648400E-03  1.1943300E-03   1.593977       34.50471    
  1.1943300E-03  1.2245600E-03   2.303684       76.84760    
  1.2245600E-03  1.2873500E-03   2.617077       23.15105    
  1.2873500E-03  1.3533500E-03   2.082274       16.50397    
  1.3533500E-03  1.4227401E-03   2.540524       15.39583    
  1.4227401E-03  1.4956900E-03   1.426478       29.55065    
  1.4956900E-03  1.5335500E-03   2.163856       32.02915    
  1.5335500E-03  1.5723699E-03   2.281945       43.07077    
  1.5723699E-03  1.6121800E-03   1.582019       39.55532    
  1.6121800E-03  1.6529900E-03   3.093938       45.82215    
  1.6529900E-03  1.7377400E-03   2.085513       22.89689    
  1.7377400E-03  1.8268300E-03   2.112731       5.953820    
  1.8268300E-03  1.8730800E-03  0.8921758       18.62797    
  1.8730800E-03  1.9205000E-03   2.213412       15.94730    
  1.9205000E-03  1.9691200E-03   1.300045       37.17506    
  1.9691200E-03  2.0189700E-03   1.674485       40.87365    
  2.0189700E-03  2.1224800E-03   1.951311       12.96211    
  2.1224800E-03  2.2313001E-03   1.934878       14.78176    
  2.2313001E-03  2.2688799E-03  0.9993638       39.03872    
  2.2688799E-03  2.3068599E-03   1.570497       48.03075    
  2.3068599E-03  2.3457000E-03  0.2020657       95.58867    
  2.3457000E-03  2.3652499E-03  0.2593607       85.21748    
  2.3652499E-03  2.3852000E-03   2.049093       57.73906    
  2.3852000E-03  2.4251300E-03  0.5650707       40.91553    
  2.4251300E-03  2.4659701E-03   1.216039       37.46573    
  2.4659701E-03  2.5923999E-03   1.429572       49.93273    
  2.5923999E-03  2.7253199E-03   1.819532       43.34469    
  2.7253199E-03  2.8650500E-03  0.8087008       55.02409    
  2.8650500E-03  3.0119400E-03  0.5201476       42.76095    
  3.0119400E-03  3.0881900E-03  0.1780892       41.83741    
  3.0881900E-03  3.1663701E-03  0.6372654       51.66505    
  3.1663701E-03  3.2465300E-03  0.4528419       48.43699    
  3.2465300E-03  3.3287101E-03  0.3766426       34.55830    
  3.3287101E-03  3.4993801E-03  0.6943697       47.56641    
  3.4993801E-03  3.6787901E-03   1.015580       31.46526    
  3.6787901E-03  3.8674099E-03  0.7544589       19.97347    
  3.8674099E-03  4.0656999E-03  0.2983744       33.73447    
  4.0656999E-03  4.2741499E-03  0.9163482       29.33669    
  4.2741499E-03  4.4932901E-03  0.4263292       48.78814    
  4.4932901E-03  4.6070400E-03  0.2211104       49.51529    
  4.6070400E-03  4.7236700E-03  0.3714439       31.42472    
  4.7236700E-03  4.8432499E-03  0.6545057       36.25591    
  4.8432499E-03  4.9658502E-03  0.7766556       36.75658    
  4.9658502E-03  5.2204598E-03  0.4248270       11.93071    
  5.2204598E-03  5.4881200E-03  0.4612411       25.47084    
  5.4881200E-03  5.7695000E-03  0.5064197       13.67089    
  5.7695000E-03  5.9155500E-03  0.8187580       34.56898    
  5.9155500E-03  6.0653100E-03  0.4611216       35.43329    
  6.0653100E-03  6.2188501E-03  0.6784991       43.90766    
  6.2188501E-03  6.3762800E-03  0.5406148       40.39495    
  6.3762800E-03  6.5377001E-03  0.6584126       19.96511    
  6.5377001E-03  6.5923799E-03  6.4237036E-02   99.00000    
  6.5923799E-03  6.6475999E-03  0.3463484       99.00000    
  6.6475999E-03  6.7031998E-03  0.9928873       40.57040    
  6.7031998E-03  6.8728901E-03  0.1555545       44.75259    
  6.8728901E-03  7.0468802E-03  0.2312136       85.40690    
  7.0468802E-03  7.2252699E-03  0.3259636       58.43004    
  7.2252699E-03  7.4081798E-03  0.2394460       23.97408    
  7.4081798E-03  7.5957198E-03  0.2749161       35.46566    
  7.5957198E-03  7.7880099E-03  0.3394936       60.09243    
  7.7880099E-03  7.9851598E-03  0.1918416       41.05967    
  7.9851598E-03  8.1873098E-03  0.5090073       35.83487    
  8.1873098E-03  8.3945701E-03  0.2785538       69.33744    
  8.3945701E-03  8.6070802E-03  0.5409241       12.12335    
  8.6070802E-03  8.8249696E-03  0.4723792       19.20368    
  8.8249696E-03  9.0483697E-03  0.2070216       95.32064    
  9.0483697E-03  9.2774397E-03  0.3844431       99.00000    
  9.2774397E-03  9.5122904E-03  0.1506229       35.79226    
  9.5122904E-03  9.7530996E-03  6.2721699E-02   99.00000    
  9.7530996E-03  9.9999998E-03  0.3699843       17.41171    
  9.9999998E-03  1.0253200E-02  0.2029944       35.65845    
  1.0253200E-02  1.0512700E-02  0.1083519       42.37955    
  1.0512700E-02  1.0778800E-02  0.1644268       56.75949    
  1.0778800E-02  1.1051700E-02  0.4034269       36.21611    
  1.1051700E-02  1.1331500E-02  8.5762762E-02   62.37386    
  1.1331500E-02  1.1618300E-02  0.2481354       58.55829    
  1.1618300E-02  1.1912500E-02  0.1968396       38.29734    
  1.1912500E-02  1.2214000E-02  0.1912808       35.46912    
  1.2214000E-02  1.2523200E-02  0.1526023       50.85522    
  1.2523200E-02  1.2840200E-02  0.1721006       29.75284    
  1.2840200E-02  1.3165300E-02  0.2699308       57.33808    
  1.3165300E-02  1.3498600E-02  0.1431139       56.41693    
  1.3498600E-02  1.3840300E-02  0.1744638       18.91617    
  1.3840300E-02  1.4190700E-02  0.1297258       44.99661    
  1.4190700E-02  1.4549900E-02  0.1715738       32.26154    
  1.4549900E-02  1.4918300E-02  0.2569649       45.68920    
  1.4918300E-02  1.5295900E-02  0.1563790       49.89520    
  1.5295900E-02  1.5683100E-02  0.2771902       17.96707    
  1.5683100E-02  1.6080100E-02  0.1184849       61.65654    
  1.6080100E-02  1.6487200E-02  0.1499749       27.38251    
  1.6487200E-02  1.6904600E-02  0.3038885       65.15298    
  1.6904600E-02  1.7332500E-02  0.1438658       22.47254    
  1.7332500E-02  1.7771300E-02  7.8467548E-02   48.34787    
  1.7771300E-02  1.8221200E-02  0.1141335       37.33189    
  1.8221200E-02  1.8682500E-02  0.1570925       38.97540    
  1.8682500E-02  1.9155400E-02  6.3519463E-02   39.60356    
  1.9155400E-02  1.9640300E-02  0.2001721       23.72168    
  1.9640300E-02  2.0000000E-02  8.9619458E-02   57.86128    
