 # Detector n:            1   HeIInflux 
 # N. of energy intervals         260
  1.0000100E-14  2.0000000E-13  2.9617021E+10   16.20057    
  2.0000000E-13  2.9297300E-13  5.6135463E+10   41.04111    
  2.9297300E-13  4.2916701E-13  5.2432945E+10   15.94866    
  4.2916701E-13  6.2867300E-13  1.1171616E+11   14.94698    
  6.2867300E-13  9.2092198E-13  1.3889606E+11   8.148742    
  9.2092198E-13  1.3490300E-12  2.2099961E+11   6.711832    
  1.3490300E-12  1.9761499E-12  2.7909351E+11   4.411462    
  1.9761499E-12  2.8947901E-12  3.5251139E+11   1.526582    
  2.8947901E-12  4.2404799E-12  4.2498510E+11   3.375203    
  4.2404799E-12  6.2117499E-12  4.8155732E+11   1.245456    
  6.2117499E-12  9.0993801E-12  4.9897505E+11  0.6072273    
  9.0993801E-12  1.3329400E-11  4.6697847E+11  0.3074110    
  1.3329400E-11  1.9525799E-11  3.5764991E+11   1.020416    
  1.9525799E-11  2.8602700E-11  2.1944448E+11   2.016229    
  2.8602700E-11  4.1899099E-11  1.0712898E+11   1.694603    
  4.1899099E-11  6.1376598E-11  4.2936431E+10   1.355215    
  6.1376598E-11  8.9908601E-11  1.6275345E+10   2.654500    
  8.9908601E-11  1.3170399E-10  5.8282732E+09   2.225755    
  1.3170399E-10  1.9292901E-10  2.2229135E+09   2.392890    
  1.9292901E-10  2.8261499E-10  1.0200480E+09   1.982410    
  2.8261499E-10  4.1399401E-10  5.8790778E+08   1.030604    
  4.1399401E-10  5.3157900E-10  4.0222650E+08   2.378142    
  5.3157900E-10  6.2506200E-10  3.1409421E+08   2.976665    
  6.2506200E-10  6.8256001E-10  3.0107462E+08   1.259434    
  6.8256001E-10  8.3368101E-10  2.4240459E+08   1.300240    
  8.3368101E-10  8.7642499E-10  2.0949078E+08   4.430726    
  8.7642499E-10  1.1253500E-09  1.8238138E+08   2.302567    
  1.1253500E-09  1.4449800E-09  1.3896506E+08   1.013764    
  1.4449800E-09  1.8553900E-09  1.0273394E+08   2.882528    
  1.8553900E-09  2.3823701E-09  7.8208848E+07   1.620425    
  2.3823701E-09  3.0590199E-09  5.7627080E+07   1.775121    
  3.0590199E-09  3.9278598E-09  4.4182168E+07   2.203412    
  3.9278598E-09  5.0434799E-09  3.4768124E+07   4.044408    
  5.0434799E-09  6.4759500E-09  2.5696162E+07   1.912408    
  6.4759500E-09  8.3152898E-09  1.9872912E+07   2.020374    
  8.3152898E-09  1.0677000E-08  1.5093904E+07   1.074841    
  1.0677000E-08  1.3709600E-08  1.1202996E+07   2.600019    
  1.3709600E-08  1.7603501E-08   9043050.       1.911489    
  1.7603501E-08  2.2603301E-08   6881454.       2.021752    
  2.2603301E-08  2.9023200E-08   5055499.       1.353747    
  2.9023200E-08  3.7266499E-08   3921298.       1.537722    
  3.7266499E-08  4.7851199E-08   2957838.       1.442827    
  4.7851199E-08  6.1442101E-08   2260520.       3.029915    
  6.1442101E-08  7.8893301E-08   1671610.       2.174920    
  7.8893301E-08  1.0130100E-07   1287937.       2.005010    
  1.0130100E-07  1.3007300E-07   953777.8       3.331756    
  1.3007300E-07  1.6701701E-07   702371.0       2.997934    
  1.6701701E-07  2.1445400E-07   556430.4       2.045049    
  2.1445400E-07  2.7536399E-07   400072.8       2.537414    
  2.7536399E-07  3.5357499E-07   312503.8       3.419599    
  3.5357499E-07  4.5399901E-07   226805.0       1.752013    
  4.5399901E-07  5.8294700E-07   171928.6       3.358742    
  5.8294700E-07  7.4851800E-07   132573.6       1.684388    
  7.4851800E-07  9.6111603E-07   94764.17       1.613391    
  9.6111603E-07  1.2341000E-06   68817.90       2.284680    
  1.2341000E-06  1.3638900E-06   60748.71       7.505530    
  1.3638900E-06  1.5073300E-06   45596.74       3.119839    
  1.5073300E-06  1.5846100E-06   41160.33       4.403456    
  1.5846100E-06  1.6658601E-06   38270.77       8.245052    
  1.6658601E-06  1.8410600E-06   37052.38       4.658404    
  1.8410600E-06  2.0346799E-06   36980.53       2.522864    
  2.0346799E-06  2.2486699E-06   30556.80       5.201472    
  2.2486699E-06  2.4851699E-06   25845.05       2.984456    
  2.4851699E-06  2.6125899E-06   19281.13       10.29539    
  2.6125899E-06  2.7465401E-06   25333.05       5.846875    
  2.7465401E-06  2.8634900E-06   20513.41       4.423706    
  2.8634900E-06  3.0353899E-06   22336.86       4.377214    
  3.0353899E-06  3.3546301E-06   19337.21       2.799699    
  3.3546301E-06  3.7074401E-06   15680.72       2.929642    
  3.7074401E-06  4.0973500E-06   13843.87       6.964949    
  4.0973500E-06  4.3074201E-06   13544.78       1.748320    
  4.3074201E-06  4.5282700E-06   11742.88       7.735787    
  4.5282700E-06  5.0045101E-06   10676.54       2.312852    
  5.0045101E-06  5.5308401E-06   10717.99       4.104867    
  5.5308401E-06  6.2672698E-06   8350.306       5.503545    
  6.2672698E-06  7.1017398E-06   7760.812       4.858830    
  7.1017398E-06  8.0473301E-06   6108.276       3.752356    
  8.0473301E-06  9.1188203E-06   5173.580       1.645695    
  9.1188203E-06  1.0333000E-05   4502.083       5.110199    
  1.0333000E-05  1.1708800E-05   4011.012       4.788936    
  1.1708800E-05  1.3267800E-05   3642.755       4.663767    
  1.3267800E-05  1.5034400E-05   2808.731       3.102698    
  1.5034400E-05  1.7036200E-05   2359.442       3.409389    
  1.7036200E-05  1.9304500E-05   2086.065       7.011205    
  1.9304500E-05  2.1334799E-05   1731.282       5.927631    
  2.1334799E-05  2.1874899E-05   1826.164       12.31670    
  2.1874899E-05  2.3578599E-05   1448.551       6.174952    
  2.3578599E-05  2.4175501E-05   1399.704       13.65927    
  2.4175501E-05  2.4787500E-05   1166.036       10.72125    
  2.4787500E-05  2.6058400E-05   1383.385       2.334155    
  2.6058400E-05  2.8087899E-05   1165.172       10.79676    
  2.8087899E-05  3.1827800E-05   1193.139       6.682834    
  3.1827800E-05  3.4306700E-05   683.3325       7.412796    
  3.4306700E-05  3.5175199E-05   439.2665       27.36596    
  3.5175199E-05  3.6065601E-05   309.5373       22.68848    
  3.6065601E-05  4.0867701E-05   478.4217       8.863979    
  4.0867701E-05  4.6309200E-05   602.8682       7.869911    
  4.6309200E-05  5.2475199E-05   487.3465       1.921459    
  5.2475199E-05  5.6562199E-05   475.4754       12.62215    
  5.6562199E-05  5.9462200E-05   397.8055       13.78154    
  5.9462200E-05  6.2510902E-05   344.5865       10.31791    
  6.2510902E-05  6.7379500E-05   395.7264       14.58270    
  6.7379500E-05  7.6350902E-05   332.1722       2.314141    
  7.6350902E-05  8.6516899E-05   237.2875       10.71062    
  8.6516899E-05  9.8036500E-05   126.9342       11.74417    
  9.8036500E-05  1.1109000E-04   173.0611       4.938309    
  1.1109000E-04  1.1678600E-04   135.5978       12.80938    
  1.1678600E-04  1.2277300E-04   96.59441       12.70617    
  1.2277300E-04  1.2906799E-04   173.1421       9.797904    
  1.2906799E-04  1.3568600E-04   116.8906       15.18110    
  1.3568600E-04  1.4264201E-04   104.1796       20.43122    
  1.4264201E-04  1.4995600E-04   62.14683       5.042399    
  1.4995600E-04  1.5764400E-04   64.13695       13.03884    
  1.5764400E-04  1.6163501E-04   65.41452       24.26682    
  1.6163501E-04  1.6572700E-04   51.81704       17.35168    
  1.6572700E-04  1.6992200E-04   83.13492       24.61782    
  1.6992200E-04  1.7422400E-04   64.24012       17.28334    
  1.7422400E-04  1.8315599E-04   72.51078       20.85653    
  1.8315599E-04  1.9254700E-04   78.67173       11.23448    
  1.9254700E-04  2.0241900E-04   65.64466       5.671035    
  2.0241900E-04  2.1279699E-04   36.08635       11.34298    
  2.1279699E-04  2.2370800E-04   46.67540       15.56188    
  2.2370800E-04  2.3517800E-04   34.91234       14.32980    
  2.3517800E-04  2.4723500E-04   52.50837       12.12000    
  2.4723500E-04  2.5991100E-04   48.39559       9.525909    
  2.5991100E-04  2.7323700E-04   50.92798       12.02999    
  2.7323700E-04  2.8015400E-04   43.52321       13.02907    
  2.8015400E-04  2.8724599E-04   49.52312       29.33037    
  2.8724599E-04  2.9451799E-04   28.94469       10.76299    
  2.9451799E-04  3.0197401E-04   34.20017       36.42932    
  3.0197401E-04  3.0961799E-04   25.81948       8.881291    
  3.0961799E-04  3.1745600E-04   30.53091       40.53277    
  3.1745600E-04  3.3373301E-04   32.37098       21.21371    
  3.3373301E-04  3.5084400E-04   30.79231       15.57864    
  3.5084400E-04  3.6883200E-04   21.35262       24.64931    
  3.6883200E-04  3.8774201E-04   23.39533       3.796813    
  3.8774201E-04  4.0762199E-04   17.25366       11.10059    
  4.0762199E-04  4.2852099E-04   21.17330       10.54874    
  4.2852099E-04  4.5049199E-04   19.71937       27.98503    
  4.5049199E-04  4.7358900E-04   19.67238       12.74506    
  4.7358900E-04  4.9787102E-04   22.86645       6.970423    
  4.9787102E-04  5.1047403E-04   21.27192       12.05321    
  5.1047403E-04  5.2339700E-04   19.94963       16.82537    
  5.2339700E-04  5.3664698E-04   20.41202       22.68382    
  5.3664698E-04  5.5023201E-04   12.72936       38.17129    
  5.5023201E-04  5.7844300E-04   8.970079       10.06821    
  5.7844300E-04  6.0810102E-04   8.862135       19.52816    
  6.0810102E-04  6.3927902E-04   14.02489       8.381396    
  6.3927902E-04  6.7205500E-04   13.69330       12.51946    
  6.7205500E-04  7.0651202E-04   12.49603       12.90158    
  7.0651202E-04  7.4273598E-04   9.531414       26.21964    
  7.4273598E-04  7.8081700E-04   8.540634       13.36697    
  7.8081700E-04  8.2085002E-04   7.583998       18.10228    
  8.2085002E-04  8.6293602E-04   7.738944       23.30376    
  8.6293602E-04  9.0717903E-04   3.900267       15.14788    
  9.0717903E-04  9.5369201E-04   4.329108       16.03891    
  9.5369201E-04  9.6163998E-04   6.125680       10.22797    
  9.6163998E-04  9.7783399E-04   2.532732       39.72147    
  9.7783399E-04  1.0025901E-03   3.789440       12.60410    
  1.0025901E-03  1.0539900E-03   3.825024       15.80677    
  1.0539900E-03  1.1080300E-03   3.469501       17.37904    
  1.1080300E-03  1.1648400E-03   3.279257       29.60483    
  1.1648400E-03  1.1943300E-03   4.081596       20.79479    
  1.1943300E-03  1.2245600E-03   3.240234       25.20038    
  1.2245600E-03  1.2873500E-03   3.294007       16.22007    
  1.2873500E-03  1.3533500E-03   2.957363       26.80153    
  1.3533500E-03  1.4227401E-03   3.820884       27.08789    
  1.4227401E-03  1.4956900E-03   3.369193       21.91091    
  1.4956900E-03  1.5335500E-03   3.782646       20.31535    
  1.5335500E-03  1.5723699E-03   2.133176       47.01738    
  1.5723699E-03  1.6121800E-03   2.780854       17.01840    
  1.6121800E-03  1.6529900E-03   2.800880       45.10906    
  1.6529900E-03  1.7377400E-03   3.095350       26.72382    
  1.7377400E-03  1.8268300E-03   3.081957       7.526425    
  1.8268300E-03  1.8730800E-03   2.163678       35.78656    
  1.8730800E-03  1.9205000E-03   2.012455       26.05403    
  1.9205000E-03  1.9691200E-03   1.773657       12.96462    
  1.9691200E-03  2.0189700E-03   1.827338       25.87764    
  2.0189700E-03  2.1224800E-03   2.564937       12.25998    
  2.1224800E-03  2.2313001E-03   2.425276       17.25142    
  2.2313001E-03  2.2688799E-03   1.715279       22.62852    
  2.2688799E-03  2.3068599E-03   1.443759       45.24361    
  2.3068599E-03  2.3457000E-03   2.179424       60.17416    
  2.3457000E-03  2.3652499E-03   3.599689       5.319369    
  2.3652499E-03  2.3852000E-03  0.4201547       70.30029    
  2.3852000E-03  2.4251300E-03   3.789170       33.58531    
  2.4251300E-03  2.4659701E-03   1.706985       46.03113    
  2.4659701E-03  2.5923999E-03   1.567598       23.25969    
  2.5923999E-03  2.7253199E-03   1.376341       25.78171    
  2.7253199E-03  2.8650500E-03   1.415074       23.99090    
  2.8650500E-03  3.0119400E-03  0.7601107       27.90349    
  3.0119400E-03  3.0881900E-03   1.260030       34.09905    
  3.0881900E-03  3.1663701E-03   2.254872       19.61242    
  3.1663701E-03  3.2465300E-03   1.091293       39.64388    
  3.2465300E-03  3.3287101E-03  0.6360122       30.50307    
  3.3287101E-03  3.4993801E-03   1.217917       5.363739    
  3.4993801E-03  3.6787901E-03   1.616071       7.197590    
  3.6787901E-03  3.8674099E-03   1.367109       49.50091    
  3.8674099E-03  4.0656999E-03   1.157156       16.23314    
  4.0656999E-03  4.2741499E-03  0.8731046       17.69348    
  4.2741499E-03  4.4932901E-03   1.083015       32.30066    
  4.4932901E-03  4.6070400E-03   1.697020       27.09341    
  4.6070400E-03  4.7236700E-03  0.5218558       59.04988    
  4.7236700E-03  4.8432499E-03   1.536857       5.373411    
  4.8432499E-03  4.9658502E-03  0.8215379       37.50447    
  4.9658502E-03  5.2204598E-03  0.5647785       24.91305    
  5.2204598E-03  5.4881200E-03  0.7449118       17.88550    
  5.4881200E-03  5.7695000E-03  0.4908162       37.95011    
  5.7695000E-03  5.9155500E-03  0.5117010       67.21976    
  5.9155500E-03  6.0653100E-03  0.5460680       27.81857    
  6.0653100E-03  6.2188501E-03  0.8661426       28.08138    
  6.2188501E-03  6.3762800E-03  0.2911491       38.79209    
  6.3762800E-03  6.5377001E-03  0.3919339       57.62140    
  6.5377001E-03  6.5923799E-03  0.3916098       96.80102    
  6.5923799E-03  6.6475999E-03  0.8025771       71.89536    
  6.6475999E-03  6.7031998E-03  0.6371540       68.00197    
  6.7031998E-03  6.8728901E-03  0.3760998       29.22405    
  6.8728901E-03  7.0468802E-03  0.8618629       29.98068    
  7.0468802E-03  7.2252699E-03  0.7080969       21.54985    
  7.2252699E-03  7.4081798E-03  0.6656517       16.24787    
  7.4081798E-03  7.5957198E-03  0.1461871       63.38464    
  7.5957198E-03  7.7880099E-03  0.7092153       36.12658    
  7.7880099E-03  7.9851598E-03  0.6000198       31.34592    
  7.9851598E-03  8.1873098E-03  0.8491120       27.37986    
  8.1873098E-03  8.3945701E-03  0.3433227       15.20617    
  8.3945701E-03  8.6070802E-03  0.4743792       34.60327    
  8.6070802E-03  8.8249696E-03  0.5074751       60.15914    
  8.8249696E-03  9.0483697E-03  0.3810418       21.18113    
  9.0483697E-03  9.2774397E-03  0.1964491       34.36519    
  9.2774397E-03  9.5122904E-03  0.4716104       30.60868    
  9.5122904E-03  9.7530996E-03  0.5338652       27.85756    
  9.7530996E-03  9.9999998E-03  0.6040182       16.80931    
  9.9999998E-03  1.0253200E-02  0.6702093       27.28271    
  1.0253200E-02  1.0512700E-02  0.4096062       17.72401    
  1.0512700E-02  1.0778800E-02  0.4164168       7.897237    
  1.0778800E-02  1.1051700E-02  0.5307283       32.34824    
  1.1051700E-02  1.1331500E-02  0.4888525       28.62100    
  1.1331500E-02  1.1618300E-02  0.2763629       2.918945    
  1.1618300E-02  1.1912500E-02  0.2057283       42.48167    
  1.1912500E-02  1.2214000E-02  0.5970908       37.57951    
  1.2214000E-02  1.2523200E-02  0.2478798       19.91112    
  1.2523200E-02  1.2840200E-02  0.4534150       37.01908    
  1.2840200E-02  1.3165300E-02  0.3355824       56.24218    
  1.3165300E-02  1.3498600E-02  0.3614821       20.14452    
  1.3498600E-02  1.3840300E-02  0.3156388       24.52736    
  1.3840300E-02  1.4190700E-02  0.1265607       43.30688    
  1.4190700E-02  1.4549900E-02  0.2596619       46.21384    
  1.4549900E-02  1.4918300E-02  0.2537904       46.74577    
  1.4918300E-02  1.5295900E-02  0.1290639       34.75666    
  1.5295900E-02  1.5683100E-02  0.3755964       19.22592    
  1.5683100E-02  1.6080100E-02  0.1594933       32.50873    
  1.6080100E-02  1.6487200E-02  0.2001536       51.57578    
  1.6487200E-02  1.6904600E-02  0.2154840       15.34717    
  1.6904600E-02  1.7332500E-02  0.2212244       35.34643    
  1.7332500E-02  1.7771300E-02  0.1304677       51.56665    
  1.7771300E-02  1.8221200E-02  0.2311014       37.05684    
  1.8221200E-02  1.8682500E-02  0.2185717       8.265030    
  1.8682500E-02  1.9155400E-02  0.2650752       32.48898    
  1.9155400E-02  1.9640300E-02  6.2472235E-02   38.87358    
  1.9640300E-02  2.0000000E-02  0.2064860       70.86734    
