 # Detector n:  1  HeIInflux 
 # N. of energy intervals 260
  1.0000100E-14  2.0000000E-13  2.7768586E+10   19.50893    
  2.0000000E-13  2.9297300E-13  5.6017609E+10   16.66194    
  2.9297300E-13  4.2916701E-13  8.1455407E+10   16.34639    
  4.2916701E-13  6.2867300E-13  1.3494042E+11   11.59915    
  6.2867300E-13  9.2092198E-13  1.7689079E+11   4.883320    
  9.2092198E-13  1.3490300E-12  2.4332516E+11   4.064092    
  1.3490300E-12  1.9761499E-12  3.4216942E+11   3.106538    
  1.9761499E-12  2.8947901E-12  4.5595047E+11   2.436258    
  2.8947901E-12  4.2404799E-12  5.4494790E+11   1.509262    
  4.2404799E-12  6.2117499E-12  5.9560768E+11   1.275985    
  6.2117499E-12  9.0993801E-12  6.3422077E+11   1.146598    
  9.0993801E-12  1.3329400E-11  5.7902111E+11   1.172415    
  1.3329400E-11  1.9525799E-11  4.4748050E+11  0.9211702    
  1.9525799E-11  2.8602700E-11  2.6920545E+11  0.7316456    
  2.8602700E-11  4.1899099E-11  1.2410607E+11   1.332950    
  4.1899099E-11  6.1376598E-11  5.2929765E+10   1.519858    
  6.1376598E-11  8.9908601E-11  2.3679652E+10   2.115582    
  8.9908601E-11  1.3170399E-10  1.1870384E+10   1.339537    
  1.3170399E-10  1.9292901E-10  6.9805629E+09  0.9762955    
  1.9292901E-10  2.8261499E-10  4.3414031E+09  0.9529476    
  2.8261499E-10  4.1399401E-10  2.8635812E+09   1.117512    
  4.1399401E-10  5.3157900E-10  2.1089494E+09  0.8338745    
  5.3157900E-10  6.2506200E-10  1.6882321E+09   1.253784    
  6.2506200E-10  6.8256001E-10  1.5035004E+09   2.116036    
  6.8256001E-10  8.3368101E-10  1.3049475E+09   1.028811    
  8.3368101E-10  8.7642499E-10  1.1366010E+09   1.532518    
  8.7642499E-10  1.1253500E-09  9.6654835E+08  0.7577751    
  1.1253500E-09  1.4449800E-09  7.5855341E+08  0.9477863    
  1.4449800E-09  1.8553900E-09  5.9626336E+08  0.8886238    
  1.8553900E-09  2.3823701E-09  4.6597834E+08   1.073300    
  2.3823701E-09  3.0590199E-09  3.6609338E+08   1.020697    
  3.0590199E-09  3.9278598E-09  2.8012486E+08  0.9623569    
  3.9278598E-09  5.0434799E-09  2.1809994E+08   1.002611    
  5.0434799E-09  6.4759500E-09  1.7405834E+08  0.8058678    
  6.4759500E-09  8.3152898E-09  1.3174863E+08  0.8087266    
  8.3152898E-09  1.0677000E-08  1.0550090E+08  0.7342007    
  1.0677000E-08  1.3709600E-08  8.1597264E+07  0.7517727    
  1.3709600E-08  1.7603501E-08  6.4487028E+07  0.9645512    
  1.7603501E-08  2.2603301E-08  5.0815224E+07  0.6643634    
  2.2603301E-08  2.9023200E-08  3.8664660E+07  0.9124708    
  2.9023200E-08  3.7266499E-08  3.0564716E+07  0.7960883    
  3.7266499E-08  4.7851199E-08  2.3770540E+07  0.9238477    
  4.7851199E-08  6.1442101E-08  1.8556304E+07  0.8778475    
  6.1442101E-08  7.8893301E-08  1.4620878E+07  0.6471078    
  7.8893301E-08  1.0130100E-07  1.1122960E+07  0.8795859    
  1.0130100E-07  1.3007300E-07   8843456.      0.6393344    
  1.3007300E-07  1.6701701E-07   6723317.      0.7733737    
  1.6701701E-07  2.1445400E-07   5337123.      0.8728157    
  2.1445400E-07  2.7536399E-07   4085264.      0.9225552    
  2.7536399E-07  3.5357499E-07   3197345.      0.7875954    
  3.5357499E-07  4.5399901E-07   2489642.      0.9022027    
  4.5399901E-07  5.8294700E-07   1874953.      0.7846380    
  5.8294700E-07  7.4851800E-07   1500612.      0.7078658    
  7.4851800E-07  9.6111603E-07   1153516.       1.184597    
  9.6111603E-07  1.2341000E-06   885063.2      0.6406311    
  1.2341000E-06  1.3638900E-06   732040.4      0.8126076    
  1.3638900E-06  1.5073300E-06   676083.7      0.7559763    
  1.5073300E-06  1.5846100E-06   620076.3       1.691974    
  1.5846100E-06  1.6658601E-06   574947.4       1.767317    
  1.6658601E-06  1.8410600E-06   533942.5       1.534447    
  1.8410600E-06  2.0346799E-06   485770.7       1.400598    
  2.0346799E-06  2.2486699E-06   437382.2       1.829361    
  2.2486699E-06  2.4851699E-06   400483.1       1.317515    
  2.4851699E-06  2.6125899E-06   352070.0       1.861973    
  2.6125899E-06  2.7465401E-06   347434.7       2.182019    
  2.7465401E-06  2.8634900E-06   323569.7       2.387350    
  2.8634900E-06  3.0353899E-06   315488.0      0.8331735    
  3.0353899E-06  3.3546301E-06   285634.6       1.366703    
  3.3546301E-06  3.7074401E-06   257186.7       1.202465    
  3.7074401E-06  4.0973500E-06   228450.8       1.912967    
  4.0973500E-06  4.3074201E-06   220161.8       2.438703    
  4.3074201E-06  4.5282700E-06   211626.7       1.658237    
  4.5282700E-06  5.0045101E-06   185636.9      0.9043468    
  5.0045101E-06  5.5308401E-06   182727.7       1.131072    
  5.5308401E-06  6.2672698E-06   128782.6       1.972414    
  6.2672698E-06  7.1017398E-06   131801.6       1.197951    
  7.1017398E-06  8.0473301E-06   114698.6       1.205898    
  8.0473301E-06  9.1188203E-06   99115.23      0.8289829    
  9.1188203E-06  1.0333000E-05   86973.65       1.333584    
  1.0333000E-05  1.1708800E-05   73983.15       1.261438    
  1.1708800E-05  1.3267800E-05   64535.08      0.8464916    
  1.3267800E-05  1.5034400E-05   56903.68       1.636126    
  1.5034400E-05  1.7036200E-05   48705.99       1.437533    
  1.7036200E-05  1.9304500E-05   41703.27       1.173840    
  1.9304500E-05  2.1334799E-05   37438.66       1.586459    
  2.1334799E-05  2.1874899E-05   35981.88       2.937539    
  2.1874899E-05  2.3578599E-05   31977.17      0.9761286    
  2.3578599E-05  2.4175501E-05   31586.43       3.643808    
  2.4175501E-05  2.4787500E-05   29492.24       3.702667    
  2.4787500E-05  2.6058400E-05   28674.68       2.586936    
  2.6058400E-05  2.8087899E-05   26837.91       1.435503    
  2.8087899E-05  3.1827800E-05   30219.54      0.7973123    
  3.1827800E-05  3.4306700E-05   20917.03       1.596426    
  3.4306700E-05  3.5175199E-05   10726.70       5.322778    
  3.5175199E-05  3.6065601E-05   9869.129       4.109209    
  3.6065601E-05  4.0867701E-05   13022.49       1.303886    
  4.0867701E-05  4.6309200E-05   14036.92       1.503512    
  4.6309200E-05  5.2475199E-05   12956.27       1.590308    
  5.2475199E-05  5.6562199E-05   11063.41       2.132312    
  5.6562199E-05  5.9462200E-05   10333.12       1.952279    
  5.9462200E-05  6.2510902E-05   10314.20       2.631302    
  6.2510902E-05  6.7379500E-05   9252.000       2.134315    
  6.7379500E-05  7.6350902E-05   9288.996       1.217472    
  7.6350902E-05  8.6516899E-05   6838.210       2.026658    
  8.6516899E-05  9.8036500E-05   4147.280       1.573185    
  9.8036500E-05  1.1109000E-04   4828.477       1.467174    
  1.1109000E-04  1.1678600E-04   4552.740       1.950638    
  1.1678600E-04  1.2277300E-04   3407.100       2.316214    
  1.2277300E-04  1.2906799E-04   4535.731       2.722116    
  1.2906799E-04  1.3568600E-04   4825.957       2.823627    
  1.3568600E-04  1.4264201E-04   3481.077       1.888214    
  1.4264201E-04  1.4995600E-04   2803.713       2.827153    
  1.4995600E-04  1.5764400E-04   2404.271       2.497553    
  1.5764400E-04  1.6163501E-04   1962.619       4.609508    
  1.6163501E-04  1.6572700E-04   2346.968       5.500102    
  1.6572700E-04  1.6992200E-04   2493.801       3.107744    
  1.6992200E-04  1.7422400E-04   2533.073       2.076732    
  1.7422400E-04  1.8315599E-04   2392.440       3.092799    
  1.8315599E-04  1.9254700E-04   2553.755       2.343415    
  1.9254700E-04  2.0241900E-04   2321.730       3.224391    
  2.0241900E-04  2.1279699E-04   1840.129       3.493384    
  2.1279699E-04  2.2370800E-04   1758.190       3.556609    
  2.2370800E-04  2.3517800E-04   1641.018       2.652384    
  2.3517800E-04  2.4723500E-04   1748.689       2.504624    
  2.4723500E-04  2.5991100E-04   1699.697       3.070711    
  2.5991100E-04  2.7323700E-04   1735.263       2.231071    
  2.7323700E-04  2.8015400E-04   1711.575       4.329128    
  2.8015400E-04  2.8724599E-04   1125.836       5.509912    
  2.8724599E-04  2.9451799E-04   1273.793       3.795232    
  2.9451799E-04  3.0197401E-04   1118.285       4.905700    
  3.0197401E-04  3.0961799E-04   1174.293       4.533491    
  3.0961799E-04  3.1745600E-04   1188.911       4.599629    
  3.1745600E-04  3.3373301E-04   1226.654       3.516153    
  3.3373301E-04  3.5084400E-04   1088.563       3.010137    
  3.5084400E-04  3.6883200E-04   1012.360       3.409117    
  3.6883200E-04  3.8774201E-04   901.2974       3.688070    
  3.8774201E-04  4.0762199E-04   904.7397       3.189670    
  4.0762199E-04  4.2852099E-04   707.8332       3.072659    
  4.2852099E-04  4.5049199E-04   716.6278       3.778450    
  4.5049199E-04  4.7358900E-04   695.3267       3.110465    
  4.7358900E-04  4.9787102E-04   614.4719       3.732311    
  4.9787102E-04  5.1047403E-04   621.6065       4.404383    
  5.1047403E-04  5.2339700E-04   572.4478       4.673757    
  5.2339700E-04  5.3664698E-04   494.6497       4.974678    
  5.3664698E-04  5.5023201E-04   529.6052       5.752731    
  5.5023201E-04  5.7844300E-04   483.0218       2.749398    
  5.7844300E-04  6.0810102E-04   451.3356       3.237979    
  6.0810102E-04  6.3927902E-04   396.0624       2.808551    
  6.3927902E-04  6.7205500E-04   361.5985       3.069563    
  6.7205500E-04  7.0651202E-04   350.5181       2.842913    
  7.0651202E-04  7.4273598E-04   312.3872       3.520250    
  7.4273598E-04  7.8081700E-04   263.8451       4.562233    
  7.8081700E-04  8.2085002E-04   212.7474       3.403726    
  8.2085002E-04  8.6293602E-04   190.6405       4.776807    
  8.6293602E-04  9.0717903E-04   180.0248       3.488841    
  9.0717903E-04  9.5369201E-04   173.7682       4.603620    
  9.5369201E-04  9.6163998E-04   175.7998       5.966133    
  9.6163998E-04  9.7783399E-04   159.9072       4.650629    
  9.7783399E-04  1.0025901E-03   147.2365       5.592471    
  1.0025901E-03  1.0539900E-03   132.5631       3.029382    
  1.0539900E-03  1.1080300E-03   128.3966       2.877590    
  1.1080300E-03  1.1648400E-03   119.5789       4.602306    
  1.1648400E-03  1.1943300E-03   104.4056       3.748888    
  1.1943300E-03  1.2245600E-03   94.41152       7.772459    
  1.2245600E-03  1.2873500E-03   107.2550       2.969758    
  1.2873500E-03  1.3533500E-03   99.48165       4.550030    
  1.3533500E-03  1.4227401E-03   95.34663       4.068778    
  1.4227401E-03  1.4956900E-03   97.87379       3.286652    
  1.4956900E-03  1.5335500E-03   91.08255       6.316684    
  1.5335500E-03  1.5723699E-03   75.33878       6.600653    
  1.5723699E-03  1.6121800E-03   86.62451       4.595972    
  1.6121800E-03  1.6529900E-03   84.13715       6.675022    
  1.6529900E-03  1.7377400E-03   80.67928       5.405008    
  1.7377400E-03  1.8268300E-03   64.65854       6.720945    
  1.8268300E-03  1.8730800E-03   70.07097       6.566443    
  1.8730800E-03  1.9205000E-03   65.76444       6.464553    
  1.9205000E-03  1.9691200E-03   59.37245       6.017190    
  1.9691200E-03  2.0189700E-03   62.23487       5.601969    
  2.0189700E-03  2.1224800E-03   58.36591       5.901431    
  2.1224800E-03  2.2313001E-03   50.99427       5.203825    
  2.2313001E-03  2.2688799E-03   55.03483       7.492670    
  2.2688799E-03  2.3068599E-03   46.19576       6.612351    
  2.3068599E-03  2.3457000E-03   58.88385       5.597815    
  2.3457000E-03  2.3652499E-03   44.23095       16.04569    
  2.3652499E-03  2.3852000E-03   52.78281       11.75288    
  2.3852000E-03  2.4251300E-03   45.04091       6.715839    
  2.4251300E-03  2.4659701E-03   44.91572       7.039173    
  2.4659701E-03  2.5923999E-03   40.04518       4.862480    
  2.5923999E-03  2.7253199E-03   35.04006       5.961104    
  2.7253199E-03  2.8650500E-03   30.92722       4.814072    
  2.8650500E-03  3.0119400E-03   29.64557       6.665967    
  3.0119400E-03  3.0881900E-03   21.43138       7.398178    
  3.0881900E-03  3.1663701E-03   26.01700       9.891146    
  3.1663701E-03  3.2465300E-03   21.37583       7.691006    
  3.2465300E-03  3.3287101E-03   21.08307       9.059868    
  3.3287101E-03  3.4993801E-03   21.18118       4.655963    
  3.4993801E-03  3.6787901E-03   18.27189       8.245818    
  3.6787901E-03  3.8674099E-03   16.87978       6.996237    
  3.8674099E-03  4.0656999E-03   14.57227       5.660368    
  4.0656999E-03  4.2741499E-03   16.99867       5.464113    
  4.2741499E-03  4.4932901E-03   13.16726       7.557518    
  4.4932901E-03  4.6070400E-03   15.48703       8.015776    
  4.6070400E-03  4.7236700E-03   12.48120       10.79227    
  4.7236700E-03  4.8432499E-03   12.07695       13.07066    
  4.8432499E-03  4.9658502E-03   11.99081       7.396358    
  4.9658502E-03  5.2204598E-03   12.16393       7.584784    
  5.2204598E-03  5.4881200E-03   11.01816       4.144806    
  5.4881200E-03  5.7695000E-03   10.02066       6.242854    
  5.7695000E-03  5.9155500E-03   7.854327       9.695675    
  5.9155500E-03  6.0653100E-03   8.262077       13.80662    
  6.0653100E-03  6.2188501E-03   7.535052       12.10298    
  6.2188501E-03  6.3762800E-03   8.328778       8.218748    
  6.3762800E-03  6.5377001E-03   7.958774       10.87179    
  6.5377001E-03  6.5923799E-03   8.195574       20.81960    
  6.5923799E-03  6.6475999E-03   5.351737       16.79373    
  6.6475999E-03  6.7031998E-03   6.519101       18.41066    
  6.7031998E-03  6.8728901E-03   6.906318       9.760155    
  6.8728901E-03  7.0468802E-03   5.437595       12.78522    
  7.0468802E-03  7.2252699E-03   7.253170       11.28601    
  7.2252699E-03  7.4081798E-03   7.558985       6.422656    
  7.4081798E-03  7.5957198E-03   6.533842       5.805171    
  7.5957198E-03  7.7880099E-03   6.819431       12.48628    
  7.7880099E-03  7.9851598E-03   6.204033       10.80742    
  7.9851598E-03  8.1873098E-03   5.721243       8.065596    
  8.1873098E-03  8.3945701E-03   7.698356       10.13515    
  8.3945701E-03  8.6070802E-03   5.189936       12.44830    
  8.6070802E-03  8.8249696E-03   5.262092       16.50520    
  8.8249696E-03  9.0483697E-03   4.067606       14.26305    
  9.0483697E-03  9.2774397E-03   5.095859       9.709333    
  9.2774397E-03  9.5122904E-03   4.321690       12.66956    
  9.5122904E-03  9.7530996E-03   4.827281       11.88999    
  9.7530996E-03  9.9999998E-03   4.257648       15.49674    
  9.9999998E-03  1.0253200E-02   4.546147       10.88857    
  1.0253200E-02  1.0512700E-02   4.146433       9.625914    
  1.0512700E-02  1.0778800E-02   3.432404       8.273532    
  1.0778800E-02  1.1051700E-02   4.182358       7.006804    
  1.1051700E-02  1.1331500E-02   4.267196       10.11735    
  1.1331500E-02  1.1618300E-02   3.130036       11.19433    
  1.1618300E-02  1.1912500E-02   3.930887       12.33209    
  1.1912500E-02  1.2214000E-02   3.214266       13.19218    
  1.2214000E-02  1.2523200E-02   3.124316       15.10712    
  1.2523200E-02  1.2840200E-02   2.698331       14.54612    
  1.2840200E-02  1.3165300E-02   3.471628       17.91849    
  1.3165300E-02  1.3498600E-02   3.505438       11.67555    
  1.3498600E-02  1.3840300E-02   2.582870       10.59398    
  1.3840300E-02  1.4190700E-02   2.587450       13.97419    
  1.4190700E-02  1.4549900E-02   2.088912       11.72337    
  1.4549900E-02  1.4918300E-02   2.903260       11.21887    
  1.4918300E-02  1.5295900E-02   1.753217       21.29626    
  1.5295900E-02  1.5683100E-02   1.906379       13.09149    
  1.5683100E-02  1.6080100E-02   1.789519       14.16188    
  1.6080100E-02  1.6487200E-02   2.743480       11.53187    
  1.6487200E-02  1.6904600E-02   1.960007       17.01286    
  1.6904600E-02  1.7332500E-02   2.048519       13.23411    
  1.7332500E-02  1.7771300E-02   1.485086       18.83517    
  1.7771300E-02  1.8221200E-02   1.767309       19.87026    
  1.8221200E-02  1.8682500E-02   1.554457       13.28068    
  1.8682500E-02  1.9155400E-02   1.654770       16.56004    
  1.9155400E-02  1.9640300E-02   1.291712       13.16820    
  1.9640300E-02  2.0000000E-02   1.775250       9.258639    
