 # Detector n:            1   HeIInflux 
 # N. of energy intervals         260
  1.0000100E-14  2.0000000E-13  7.9422284E+10  0.2944043    
  2.0000000E-13  2.9297300E-13  1.7534573E+11  0.2851046    
  2.9297300E-13  4.2916701E-13  2.4945793E+11  0.2035572    
  4.2916701E-13  6.2867300E-13  3.5023815E+11  0.1412518    
  6.2867300E-13  9.2092198E-13  4.8379665E+11  9.7004190E-02
  9.2092198E-13  1.3490300E-12  6.4850900E+11  7.1751639E-02
  1.3490300E-12  1.9761499E-12  8.3744607E+11  5.3894453E-02
  1.9761499E-12  2.8947901E-12  1.0519271E+12  4.0187266E-02
  2.8947901E-12  4.2404799E-12  1.2520507E+12  3.1147057E-02
  4.2404799E-12  6.2117499E-12  1.3901718E+12  2.5005657E-02
  6.2117499E-12  9.0993801E-12  1.4139729E+12  2.1901911E-02
  9.0993801E-12  1.3329400E-11  1.2848153E+12  1.9758642E-02
  1.3329400E-11  1.9525799E-11  1.0101958E+12  1.8606318E-02
  1.9525799E-11  2.8602700E-11  6.6650413E+11  1.8747261E-02
  2.8602700E-11  4.1899099E-11  3.6950829E+11  2.0046325E-02
  4.1899099E-11  6.1376598E-11  1.8466526E+11  2.2532826E-02
  6.1376598E-11  8.9908601E-11  8.4096557E+10  2.6225450E-02
  8.9908601E-11  1.3170399E-10  3.2586469E+10  3.4350220E-02
  1.3170399E-10  1.9292901E-10  1.1988804E+10  4.5214694E-02
  1.9292901E-10  2.8261499E-10  5.4603090E+09  5.4884683E-02
  2.8261499E-10  4.1399401E-10  3.1815327E+09  5.8499996E-02
  4.1399401E-10  5.3157900E-10  2.2237932E+09  7.5223468E-02
  5.3157900E-10  6.2506200E-10  1.7753772E+09  9.4042435E-02
  6.2506200E-10  6.8256001E-10  1.5512188E+09  0.1237952    
  6.8256001E-10  8.3368101E-10  1.3258538E+09  8.5320644E-02
  8.3368101E-10  8.7642499E-10  1.1606602E+09  0.1633441    
  8.7642499E-10  1.1253500E-09  9.8549882E+08  7.7583179E-02
  1.1253500E-09  1.4449800E-09  7.5626470E+08  7.7401318E-02
  1.4449800E-09  1.8553900E-09  5.7983066E+08  7.6679341E-02
  1.8553900E-09  2.3823701E-09  4.4725616E+08  7.8226626E-02
  2.3823701E-09  3.0590199E-09  3.4550147E+08  7.9535156E-02
  3.0590199E-09  3.9278598E-09  2.6588104E+08  8.1282251E-02
  3.9278598E-09  5.0434799E-09  2.0643618E+08  7.7892780E-02
  5.0434799E-09  6.4759500E-09  1.5998651E+08  7.9172380E-02
  6.4759500E-09  8.3152898E-09  1.2406549E+08  7.9923809E-02
  8.3152898E-09  1.0677000E-08  9.6167336E+07  7.9377159E-02
  1.0677000E-08  1.3709600E-08  7.4504600E+07  8.1511587E-02
  1.3709600E-08  1.7603501E-08  5.7617900E+07  8.2030885E-02
  1.7603501E-08  2.2603301E-08  4.4560796E+07  8.1188150E-02
  2.2603301E-08  2.9023200E-08  3.4482516E+07  8.0321103E-02
  2.9023200E-08  3.7266499E-08  2.6635858E+07  8.0534719E-02
  3.7266499E-08  4.7851199E-08  2.0567414E+07  8.0324702E-02
  4.7851199E-08  6.1442101E-08  1.5874784E+07  8.1193693E-02
  6.1442101E-08  7.8893301E-08  1.2244730E+07  8.1609689E-02
  7.8893301E-08  1.0130100E-07   9427054.      8.2655020E-02
  1.0130100E-07  1.3007300E-07   7256191.      8.2493618E-02
  1.3007300E-07  1.6701701E-07   5580911.      8.5004367E-02
  1.6701701E-07  2.1445400E-07   4293374.      8.3478287E-02
  2.1445400E-07  2.7536399E-07   3293198.      8.1818961E-02
  2.7536399E-07  3.5357499E-07   2554774.      8.8171616E-02
  3.5357499E-07  4.5399901E-07   1910288.      8.6988062E-02
  4.5399901E-07  5.8294700E-07   1471533.      8.8405311E-02
  5.8294700E-07  7.4851800E-07   1132852.      8.6476758E-02
  7.4851800E-07  9.6111603E-07   865228.4      8.9664385E-02
  9.6111603E-07  1.2341000E-06   658962.2      8.7552272E-02
  1.2341000E-06  1.3638900E-06   547948.9      0.1393297    
  1.3638900E-06  1.5073300E-06   491160.8      0.1414335    
  1.5073300E-06  1.5846100E-06   452432.3      0.1940723    
  1.5846100E-06  1.6658601E-06   428562.8      0.1983412    
  1.6658601E-06  1.8410600E-06   397672.0      0.1408993    
  1.8410600E-06  2.0346799E-06   374001.2      0.1415134    
  2.0346799E-06  2.2486699E-06   297781.4      0.1484316    
  2.2486699E-06  2.4851699E-06   281084.8      0.1451230    
  2.4851699E-06  2.6125899E-06   253495.0      0.2091055    
  2.6125899E-06  2.7465401E-06   234525.5      0.2072035    
  2.7465401E-06  2.8634900E-06   233078.7      0.2191725    
  2.8634900E-06  3.0353899E-06   220030.6      0.1957137    
  3.0353899E-06  3.3546301E-06   202913.6      0.1427341    
  3.3546301E-06  3.7074401E-06   182145.2      0.1476482    
  3.7074401E-06  4.0973500E-06   162780.1      0.1451952    
  4.0973500E-06  4.3074201E-06   148774.4      0.2060629    
  4.3074201E-06  4.5282700E-06   138898.0      0.2109034    
  4.5282700E-06  5.0045101E-06   130087.3      0.1480836    
  5.0045101E-06  5.5308401E-06   129382.6      0.1406623    
  5.5308401E-06  6.2672698E-06   85755.66      0.1495029    
  6.2672698E-06  7.1017398E-06   88097.87      0.1389094    
  7.1017398E-06  8.0473301E-06   76578.89      0.1364323    
  8.0473301E-06  9.1188203E-06   66416.00      0.1430675    
  9.1188203E-06  1.0333000E-05   57028.64      0.1393086    
  1.0333000E-05  1.1708800E-05   49661.14      0.1422452    
  1.1708800E-05  1.3267800E-05   43272.39      0.1433108    
  1.3267800E-05  1.5034400E-05   36915.98      0.1437345    
  1.5034400E-05  1.7036200E-05   31838.24      0.1483127    
  1.7036200E-05  1.9304500E-05   27562.62      0.1477751    
  1.9304500E-05  2.1334799E-05   23990.33      0.1643276    
  2.1334799E-05  2.1874899E-05   22474.59      0.3334502    
  2.1874899E-05  2.3578599E-05   21320.47      0.1889492    
  2.3578599E-05  2.4175501E-05   20299.88      0.3385522    
  2.4175501E-05  2.4787500E-05   19908.35      0.3369659    
  2.4787500E-05  2.6058400E-05   19158.48      0.2409207    
  2.6058400E-05  2.8087899E-05   18499.84      0.1957035    
  2.8087899E-05  3.1827800E-05   19580.54      0.1408408    
  3.1827800E-05  3.4306700E-05   11676.53      0.2166418    
  3.4306700E-05  3.5175199E-05   5694.013      0.5098507    
  3.5175199E-05  3.6065601E-05   5427.600      0.5351281    
  3.6065601E-05  4.0867701E-05   7340.063      0.1978221    
  4.0867701E-05  4.6309200E-05   8614.438      0.1667202    
  4.6309200E-05  5.2475199E-05   7929.076      0.1648628    
  5.2475199E-05  5.6562199E-05   7132.321      0.2128072    
  5.6562199E-05  5.9462200E-05   6663.499      0.2693934    
  5.9462200E-05  6.2510902E-05   6399.386      0.2588486    
  6.2510902E-05  6.7379500E-05   6101.831      0.2135953    
  6.7379500E-05  7.6350902E-05   6085.473      0.1589679    
  7.6350902E-05  8.6516899E-05   4199.050      0.1824898    
  8.6516899E-05  9.8036500E-05   2383.377      0.2222346    
  9.8036500E-05  1.1109000E-04   3020.846      0.1882116    
  1.1109000E-04  1.1678600E-04   2975.753      0.2829921    
  1.1678600E-04  1.2277300E-04   2051.549      0.3244058    
  1.2277300E-04  1.2906799E-04   3024.620      0.2672240    
  1.2906799E-04  1.3568600E-04   3024.260      0.2609935    
  1.3568600E-04  1.4264201E-04   2189.625      0.2963084    
  1.4264201E-04  1.4995600E-04   1641.498      0.3339237    
  1.4995600E-04  1.5764400E-04   1525.896      0.3360072    
  1.5764400E-04  1.6163501E-04   1193.214      0.5108387    
  1.6163501E-04  1.6572700E-04   1489.064      0.4674492    
  1.6572700E-04  1.6992200E-04   1557.393      0.4621884    
  1.6992200E-04  1.7422400E-04   1569.002      0.4436846    
  1.7422400E-04  1.8315599E-04   1608.697      0.3015617    
  1.8315599E-04  1.9254700E-04   1607.190      0.2962590    
  1.9254700E-04  2.0241900E-04   1446.914      0.3051037    
  2.0241900E-04  2.1279699E-04   1120.582      0.3333516    
  2.1279699E-04  2.2370800E-04   1141.197      0.3155994    
  2.2370800E-04  2.3517800E-04   1123.814      0.3202384    
  2.3517800E-04  2.4723500E-04   1131.921      0.3058474    
  2.4723500E-04  2.5991100E-04   1125.562      0.3007954    
  2.5991100E-04  2.7323700E-04   1165.829      0.2931350    
  2.7323700E-04  2.8015400E-04   1032.795      0.4287300    
  2.8015400E-04  2.8724599E-04   824.9620      0.4722219    
  2.8724599E-04  2.9451799E-04   811.6854      0.4595102    
  2.9451799E-04  3.0197401E-04   826.3321      0.4551067    
  3.0197401E-04  3.0961799E-04   813.5145      0.4507090    
  3.0961799E-04  3.1745600E-04   736.2522      0.4595126    
  3.1745600E-04  3.3373301E-04   761.9832      0.3157326    
  3.3373301E-04  3.5084400E-04   754.8522      0.3127737    
  3.5084400E-04  3.6883200E-04   646.5179      0.3260880    
  3.6883200E-04  3.8774201E-04   594.9981      0.3273750    
  3.8774201E-04  4.0762199E-04   573.8809      0.3364205    
  4.0762199E-04  4.2852099E-04   474.8220      0.3335188    
  4.2852099E-04  4.5049199E-04   435.7037      0.3536901    
  4.5049199E-04  4.7358900E-04   431.3160      0.3403939    
  4.7358900E-04  4.9787102E-04   421.5442      0.3387792    
  4.9787102E-04  5.1047403E-04   418.9756      0.4653430    
  5.1047403E-04  5.2339700E-04   402.1490      0.4749953    
  5.2339700E-04  5.3664698E-04   334.9301      0.5013111    
  5.3664698E-04  5.5023201E-04   355.9557      0.4756344    
  5.5023201E-04  5.7844300E-04   323.9564      0.3493007    
  5.7844300E-04  6.0810102E-04   305.4141      0.3417393    
  6.0810102E-04  6.3927902E-04   273.6521      0.3473703    
  6.3927902E-04  6.7205500E-04   230.8736      0.3608591    
  6.7205500E-04  7.0651202E-04   228.8084      0.3521280    
  7.0651202E-04  7.4273598E-04   202.7803      0.3475018    
  7.4273598E-04  7.8081700E-04   175.8159      0.3500589    
  7.8081700E-04  8.2085002E-04   140.4478      0.3696226    
  8.2085002E-04  8.6293602E-04   127.3813      0.3756119    
  8.6293602E-04  9.0717903E-04   113.1402      0.3718814    
  9.0717903E-04  9.5369201E-04   102.9535      0.3730438    
  9.5369201E-04  9.6163998E-04   95.43355      0.8758594    
  9.6163998E-04  9.7783399E-04   91.22662      0.6304154    
  9.7783399E-04  1.0025901E-03   88.59631      0.5277918    
  1.0025901E-03  1.0539900E-03   83.54527      0.3716836    
  1.0539900E-03  1.1080300E-03   82.67616      0.3616159    
  1.1080300E-03  1.1648400E-03   76.39616      0.3685485    
  1.1648400E-03  1.1943300E-03   72.11580      0.5148715    
  1.1943300E-03  1.2245600E-03   75.76305      0.4967079    
  1.2245600E-03  1.2873500E-03   73.30689      0.3606544    
  1.2873500E-03  1.3533500E-03   71.36509      0.3575615    
  1.3533500E-03  1.4227401E-03   72.69883      0.3481730    
  1.4227401E-03  1.4956900E-03   70.73260      0.3683534    
  1.4956900E-03  1.5335500E-03   70.55891      0.4934936    
  1.5335500E-03  1.5723699E-03   69.38390      0.5110747    
  1.5723699E-03  1.6121800E-03   69.30144      0.5042632    
  1.6121800E-03  1.6529900E-03   68.44249      0.5035684    
  1.6529900E-03  1.7377400E-03   67.07864      0.3691090    
  1.7377400E-03  1.8268300E-03   65.13419      0.3679999    
  1.8268300E-03  1.8730800E-03   64.95412      0.5207711    
  1.8730800E-03  1.9205000E-03   62.82172      0.5161429    
  1.9205000E-03  1.9691200E-03   60.39842      0.5308708    
  1.9691200E-03  2.0189700E-03   61.06220      0.5255988    
  2.0189700E-03  2.1224800E-03   58.21251      0.3859889    
  2.1224800E-03  2.2313001E-03   56.16538      0.3779167    
  2.2313001E-03  2.2688799E-03   54.96205      0.6562677    
  2.2688799E-03  2.3068599E-03   53.62387      0.6723416    
  2.3068599E-03  2.3457000E-03   53.71429      0.6485631    
  2.3457000E-03  2.3652499E-03   53.60309      0.9286404    
  2.3652499E-03  2.3852000E-03   55.45454      0.9077604    
  2.3852000E-03  2.4251300E-03   52.07033      0.6674489    
  2.4251300E-03  2.4659701E-03   52.12674      0.6411347    
  2.4659701E-03  2.5923999E-03   45.56064      0.4050310    
  2.5923999E-03  2.7253199E-03   43.06075      0.4066535    
  2.7253199E-03  2.8650500E-03   39.80485      0.4186918    
  2.8650500E-03  3.0119400E-03   36.85581      0.4254524    
  3.0119400E-03  3.0881900E-03   35.87659      0.5938676    
  3.0881900E-03  3.1663701E-03   34.17323      0.6111326    
  3.1663701E-03  3.2465300E-03   32.63863      0.6263968    
  3.2465300E-03  3.3287101E-03   30.69909      0.6255991    
  3.3287101E-03  3.4993801E-03   29.54486      0.4565137    
  3.4993801E-03  3.6787901E-03   27.88069      0.4490933    
  3.6787901E-03  3.8674099E-03   26.48189      0.4469735    
  3.8674099E-03  4.0656999E-03   25.62625      0.4569143    
  4.0656999E-03  4.2741499E-03   24.25561      0.4526743    
  4.2741499E-03  4.4932901E-03   22.43502      0.4695264    
  4.4932901E-03  4.6070400E-03   21.79710      0.6484039    
  4.6070400E-03  4.7236700E-03   21.18868      0.6579807    
  4.7236700E-03  4.8432499E-03   20.31638      0.6739854    
  4.8432499E-03  4.9658502E-03   19.80550      0.6708909    
  4.9658502E-03  5.2204598E-03   18.58776      0.4734545    
  5.2204598E-03  5.4881200E-03   17.79249      0.4781241    
  5.4881200E-03  5.7695000E-03   16.21218      0.5049688    
  5.7695000E-03  5.9155500E-03   15.88235      0.6774978    
  5.9155500E-03  6.0653100E-03   14.84444      0.7126325    
  6.0653100E-03  6.2188501E-03   14.62670      0.7015266    
  6.2188501E-03  6.3762800E-03   14.36663      0.7038035    
  6.3762800E-03  6.5377001E-03   13.69042      0.7052867    
  6.5377001E-03  6.5923799E-03   13.27993       1.218752    
  6.5923799E-03  6.6475999E-03   12.99315       1.268289    
  6.6475999E-03  6.7031998E-03   13.08949       1.251364    
  6.7031998E-03  6.8728901E-03   12.58188      0.7239165    
  6.8728901E-03  7.0468802E-03   12.19115      0.7425792    
  7.0468802E-03  7.2252699E-03   11.76440      0.7505126    
  7.2252699E-03  7.4081798E-03   11.05986      0.7467602    
  7.4081798E-03  7.5957198E-03   10.83066      0.7614396    
  7.5957198E-03  7.7880099E-03   10.44091      0.7324628    
  7.7880099E-03  7.9851598E-03   9.911801      0.7635757    
  7.9851598E-03  8.1873098E-03   9.751233      0.7622750    
  8.1873098E-03  8.3945701E-03   9.336634      0.7687284    
  8.3945701E-03  8.6070802E-03   8.940759      0.7779386    
  8.6070802E-03  8.8249696E-03   8.611294      0.7798811    
  8.8249696E-03  9.0483697E-03   8.422333      0.7929275    
  9.0483697E-03  9.2774397E-03   8.143101      0.8201631    
  9.2774397E-03  9.5122904E-03   7.764428      0.8148175    
  9.5122904E-03  9.7530996E-03   7.595412      0.7957153    
  9.7530996E-03  9.9999998E-03   7.316494      0.8026739    
  9.9999998E-03  1.0253200E-02   7.085037      0.8255239    
  1.0253200E-02  1.0512700E-02   6.872887      0.8245847    
  1.0512700E-02  1.0778800E-02   6.736829      0.8369132    
  1.0778800E-02  1.1051700E-02   6.554619      0.8410825    
  1.1051700E-02  1.1331500E-02   6.159247      0.8457057    
  1.1331500E-02  1.1618300E-02   5.932938      0.8399342    
  1.1618300E-02  1.1912500E-02   5.874283      0.8649249    
  1.1912500E-02  1.2214000E-02   5.688505      0.8377802    
  1.2214000E-02  1.2523200E-02   5.570668      0.8629575    
  1.2523200E-02  1.2840200E-02   5.428359      0.8535317    
  1.2840200E-02  1.3165300E-02   5.330720      0.8419204    
  1.3165300E-02  1.3498600E-02   5.117182      0.8595772    
  1.3498600E-02  1.3840300E-02   4.874374      0.8587708    
  1.3840300E-02  1.4190700E-02   4.775832      0.8545697    
  1.4190700E-02  1.4549900E-02   4.662080      0.8531895    
  1.4549900E-02  1.4918300E-02   4.401282      0.8826317    
  1.4918300E-02  1.5295900E-02   4.352837      0.8904276    
  1.5295900E-02  1.5683100E-02   4.210963      0.8791163    
  1.5683100E-02  1.6080100E-02   4.083078      0.8895063    
  1.6080100E-02  1.6487200E-02   3.961364      0.8937004    
  1.6487200E-02  1.6904600E-02   3.803888      0.9070967    
  1.6904600E-02  1.7332500E-02   3.668509      0.9075829    
  1.7332500E-02  1.7771300E-02   3.572904      0.9214660    
  1.7771300E-02  1.8221200E-02   3.459834      0.9334394    
  1.8221200E-02  1.8682500E-02   3.282917      0.9195465    
  1.8682500E-02  1.9155400E-02   3.156399      0.9534863    
  1.9155400E-02  1.9640300E-02   3.029042      0.9526433    
  1.9640300E-02  2.0000000E-02   2.905930       1.098241    
