 # Detector n:  1  HeIInflux 
 # N. of energy intervals 260
  1.0000100E-14  2.0000000E-13  8.2231599E+10   12.47947    
  2.0000000E-13  2.9297300E-13  1.5715593E+11   11.61350    
  2.9297300E-13  4.2916701E-13  2.4902602E+11   9.300431    
  4.2916701E-13  6.2867300E-13  3.7568692E+11   5.398279    
  6.2867300E-13  9.2092198E-13  4.7662757E+11   4.676113    
  9.2092198E-13  1.3490300E-12  6.7733252E+11   3.107532    
  1.3490300E-12  1.9761499E-12  9.5678346E+11   2.294731    
  1.9761499E-12  2.8947901E-12  1.1926461E+12   1.507003    
  2.8947901E-12  4.2404799E-12  1.3781839E+12  0.7298942    
  4.2404799E-12  6.2117499E-12  1.5816436E+12  0.8828223    
  6.2117499E-12  9.0993801E-12  1.6223455E+12   1.133976    
  9.0993801E-12  1.3329400E-11  1.4425939E+12  0.9643090    
  1.3329400E-11  1.9525799E-11  1.0823382E+12  0.8171791    
  1.9525799E-11  2.8602700E-11  6.4342740E+11  0.8272985    
  2.8602700E-11  4.1899099E-11  2.9815272E+11  0.9328413    
  4.1899099E-11  6.1376598E-11  1.2129223E+11   1.159885    
  6.1376598E-11  8.9908601E-11  5.0808734E+10   1.500820    
  8.9908601E-11  1.3170399E-10  2.5225286E+10   1.631652    
  1.3170399E-10  1.9292901E-10  1.4036327E+10  0.8859286    
  1.9292901E-10  2.8261499E-10  8.6828790E+09  0.5252135    
  2.8261499E-10  4.1399401E-10  5.6989358E+09  0.5816439    
  4.1399401E-10  5.3157900E-10  4.1330632E+09  0.6539542    
  5.3157900E-10  6.2506200E-10  3.3285747E+09  0.9720042    
  6.2506200E-10  6.8256001E-10  2.9359296E+09   1.000514    
  6.8256001E-10  8.3368101E-10  2.5447611E+09  0.6770171    
  8.3368101E-10  8.7642499E-10  2.2313651E+09   2.107786    
  8.7642499E-10  1.1253500E-09  1.9147642E+09  0.7757722    
  1.1253500E-09  1.4449800E-09  1.4805663E+09  0.9357651    
  1.4449800E-09  1.8553900E-09  1.1493778E+09  0.5825217    
  1.8553900E-09  2.3823701E-09  8.8783712E+08  0.6315560    
  2.3823701E-09  3.0590199E-09  7.0426931E+08  0.7535396    
  3.0590199E-09  3.9278598E-09  5.4100134E+08  0.9121463    
  3.9278598E-09  5.0434799E-09  4.2306483E+08  0.5895925    
  5.0434799E-09  6.4759500E-09  3.2582304E+08  0.4953797    
  6.4759500E-09  8.3152898E-09  2.5526848E+08  0.6421549    
  8.3152898E-09  1.0677000E-08  2.0254360E+08  0.4708117    
  1.0677000E-08  1.3709600E-08  1.5865926E+08  0.5310665    
  1.3709600E-08  1.7603501E-08  1.2113894E+08  0.8376092    
  1.7603501E-08  2.2603301E-08  9.5718040E+07  0.7273905    
  2.2603301E-08  2.9023200E-08  7.3972304E+07  0.7940699    
  2.9023200E-08  3.7266499E-08  5.7925484E+07  0.6518955    
  3.7266499E-08  4.7851199E-08  4.4439896E+07  0.4977926    
  4.7851199E-08  6.1442101E-08  3.4854068E+07  0.8231485    
  6.1442101E-08  7.8893301E-08  2.6887400E+07  0.7130199    
  7.8893301E-08  1.0130100E-07  2.1009664E+07  0.5673989    
  1.0130100E-07  1.3007300E-07  1.6389561E+07  0.5252159    
  1.3007300E-07  1.6701701E-07  1.2622991E+07  0.8769836    
  1.6701701E-07  2.1445400E-07   9662099.      0.6921924    
  2.1445400E-07  2.7536399E-07   7670102.      0.7076386    
  2.7536399E-07  3.5357499E-07   5837952.      0.9410875    
  3.5357499E-07  4.5399901E-07   4554693.      0.9898206    
  4.5399901E-07  5.8294700E-07   3499916.      0.7583953    
  5.8294700E-07  7.4851800E-07   2681338.      0.7467380    
  7.4851800E-07  9.6111603E-07   2055510.      0.8752398    
  9.6111603E-07  1.2341000E-06   1592996.      0.7623437    
  1.2341000E-06  1.3638900E-06   1322444.       1.233607    
  1.3638900E-06  1.5073300E-06   1208979.       1.314076    
  1.5073300E-06  1.5846100E-06   1093116.       1.656586    
  1.5846100E-06  1.6658601E-06   1014283.       1.858868    
  1.6658601E-06  1.8410600E-06   956158.1       1.036483    
  1.8410600E-06  2.0346799E-06   852470.4       1.442322    
  2.0346799E-06  2.2486699E-06   776996.5       1.471603    
  2.2486699E-06  2.4851699E-06   708895.6       1.442082    
  2.4851699E-06  2.6125899E-06   634895.5       1.985502    
  2.6125899E-06  2.7465401E-06   624813.3       1.662932    
  2.7465401E-06  2.8634900E-06   583974.9       2.521464    
  2.8634900E-06  3.0353899E-06   557854.8       1.821243    
  3.0353899E-06  3.3546301E-06   503216.2       1.669372    
  3.3546301E-06  3.7074401E-06   458459.8      0.7937626    
  3.7074401E-06  4.0973500E-06   398892.4       1.128772    
  4.0973500E-06  4.3074201E-06   361975.1       2.319099    
  4.3074201E-06  4.5282700E-06   366214.0       2.075448    
  4.5282700E-06  5.0045101E-06   330325.0      0.8816359    
  5.0045101E-06  5.5308401E-06   321470.4       1.448180    
  5.5308401E-06  6.2672698E-06   235121.1       1.079710    
  6.2672698E-06  7.1017398E-06   231940.2      0.8010462    
  7.1017398E-06  8.0473301E-06   204103.7       1.172576    
  8.0473301E-06  9.1188203E-06   177906.8       1.256853    
  9.1188203E-06  1.0333000E-05   151885.8       1.172045    
  1.0333000E-05  1.1708800E-05   129093.3       1.227687    
  1.1708800E-05  1.3267800E-05   116027.7       1.077793    
  1.3267800E-05  1.5034400E-05   99861.29       1.094334    
  1.5034400E-05  1.7036200E-05   84756.66      0.9826708    
  1.7036200E-05  1.9304500E-05   72907.79       1.207384    
  1.9304500E-05  2.1334799E-05   66717.34       1.057535    
  2.1334799E-05  2.1874899E-05   60736.61       3.555083    
  2.1874899E-05  2.3578599E-05   57243.61       1.622615    
  2.3578599E-05  2.4175501E-05   54508.57       2.017928    
  2.4175501E-05  2.4787500E-05   51506.52       2.863120    
  2.4787500E-05  2.6058400E-05   49216.66       2.240879    
  2.6058400E-05  2.8087899E-05   49852.64       1.122581    
  2.8087899E-05  3.1827800E-05   51027.45       1.268541    
  3.1827800E-05  3.4306700E-05   35204.91       1.933644    
  3.4306700E-05  3.5175199E-05   18704.54       3.312062    
  3.5175199E-05  3.6065601E-05   17629.79       3.373659    
  3.6065601E-05  4.0867701E-05   22713.88       1.327229    
  4.0867701E-05  4.6309200E-05   24812.23       1.224455    
  4.6309200E-05  5.2475199E-05   22631.33      0.9183411    
  5.2475199E-05  5.6562199E-05   19843.74       1.686310    
  5.6562199E-05  5.9462200E-05   17962.77       2.442787    
  5.9462200E-05  6.2510902E-05   16831.57       2.196592    
  6.2510902E-05  6.7379500E-05   16350.92       1.437239    
  6.7379500E-05  7.6350902E-05   15817.86       1.253177    
  7.6350902E-05  8.6516899E-05   12202.54       1.679548    
  8.6516899E-05  9.8036500E-05   7331.201       2.050759    
  9.8036500E-05  1.1109000E-04   8364.190       1.277048    
  1.1109000E-04  1.1678600E-04   7622.029       2.724312    
  1.1678600E-04  1.2277300E-04   5769.791       3.339801    
  1.2277300E-04  1.2906799E-04   7797.431       2.022916    
  1.2906799E-04  1.3568600E-04   7721.183       1.966183    
  1.3568600E-04  1.4264201E-04   6281.533       1.879363    
  1.4264201E-04  1.4995600E-04   4415.093       2.610148    
  1.4995600E-04  1.5764400E-04   4281.404       3.017683    
  1.5764400E-04  1.6163501E-04   3429.554       4.153400    
  1.6163501E-04  1.6572700E-04   3950.439       3.688675    
  1.6572700E-04  1.6992200E-04   4503.041       3.688540    
  1.6992200E-04  1.7422400E-04   4508.136       2.371459    
  1.7422400E-04  1.8315599E-04   4347.898       2.676464    
  1.8315599E-04  1.9254700E-04   4252.767       2.568028    
  1.9254700E-04  2.0241900E-04   3960.233       2.602215    
  2.0241900E-04  2.1279699E-04   3301.589       2.012490    
  2.1279699E-04  2.2370800E-04   3095.887       2.049541    
  2.2370800E-04  2.3517800E-04   2964.014       3.058291    
  2.3517800E-04  2.4723500E-04   3119.633       1.686572    
  2.4723500E-04  2.5991100E-04   2989.805       3.120578    
  2.5991100E-04  2.7323700E-04   3071.719       2.511802    
  2.7323700E-04  2.8015400E-04   2712.043       2.961007    
  2.8015400E-04  2.8724599E-04   2015.953       4.068603    
  2.8724599E-04  2.9451799E-04   2237.501       3.681419    
  2.9451799E-04  3.0197401E-04   1996.358       5.086677    
  3.0197401E-04  3.0961799E-04   2033.847       3.886736    
  3.0961799E-04  3.1745600E-04   1709.773       5.173438    
  3.1745600E-04  3.3373301E-04   1918.245       2.681257    
  3.3373301E-04  3.5084400E-04   1978.204       2.426102    
  3.5084400E-04  3.6883200E-04   1641.761       2.581626    
  3.6883200E-04  3.8774201E-04   1499.139       2.284090    
  3.8774201E-04  4.0762199E-04   1482.106       3.404291    
  4.0762199E-04  4.2852099E-04   1276.218       2.398829    
  4.2852099E-04  4.5049199E-04   1107.437       2.832091    
  4.5049199E-04  4.7358900E-04   1107.765       2.296495    
  4.7358900E-04  4.9787102E-04   1026.289       2.432573    
  4.9787102E-04  5.1047403E-04   1064.688       2.639110    
  5.1047403E-04  5.2339700E-04   1076.907       3.921789    
  5.2339700E-04  5.3664698E-04   807.3469       5.104748    
  5.3664698E-04  5.5023201E-04   873.5925       3.232190    
  5.5023201E-04  5.7844300E-04   812.4905       2.891128    
  5.7844300E-04  6.0810102E-04   784.8506       3.073866    
  6.0810102E-04  6.3927902E-04   639.1699       2.809195    
  6.3927902E-04  6.7205500E-04   543.8405       2.623194    
  6.7205500E-04  7.0651202E-04   549.6028       1.539385    
  7.0651202E-04  7.4273598E-04   458.9831       3.054450    
  7.4273598E-04  7.8081700E-04   413.3568       2.060460    
  7.8081700E-04  8.2085002E-04   310.2299       3.604229    
  8.2085002E-04  8.6293602E-04   284.7305       3.480721    
  8.6293602E-04  9.0717903E-04   264.2675       4.641068    
  9.0717903E-04  9.5369201E-04   243.6579       4.198807    
  9.5369201E-04  9.6163998E-04   260.1512       7.787280    
  9.6163998E-04  9.7783399E-04   227.6345       7.129043    
  9.7783399E-04  1.0025901E-03   194.8510       4.216849    
  1.0025901E-03  1.0539900E-03   194.8362       3.409302    
  1.0539900E-03  1.1080300E-03   183.2057       2.377331    
  1.1080300E-03  1.1648400E-03   164.1192       3.595320    
  1.1648400E-03  1.1943300E-03   156.5522       6.053987    
  1.1943300E-03  1.2245600E-03   161.6671       5.118730    
  1.2245600E-03  1.2873500E-03   150.9752       4.451630    
  1.2873500E-03  1.3533500E-03   152.0456       2.898868    
  1.3533500E-03  1.4227401E-03   145.0799       4.253999    
  1.4227401E-03  1.4956900E-03   133.7868       3.732186    
  1.4956900E-03  1.5335500E-03   133.3733       5.641304    
  1.5335500E-03  1.5723699E-03   129.0212       6.301980    
  1.5723699E-03  1.6121800E-03   118.7694       6.055979    
  1.6121800E-03  1.6529900E-03   111.1493       7.231105    
  1.6529900E-03  1.7377400E-03   122.2525       3.729027    
  1.7377400E-03  1.8268300E-03   113.0191       4.608150    
  1.8268300E-03  1.8730800E-03   99.64852       7.093655    
  1.8730800E-03  1.9205000E-03   92.74677       5.658909    
  1.9205000E-03  1.9691200E-03   94.89577       4.103428    
  1.9691200E-03  2.0189700E-03   87.77071       6.785179    
  2.0189700E-03  2.1224800E-03   85.49050       4.415037    
  2.1224800E-03  2.2313001E-03   84.49712       3.829619    
  2.2313001E-03  2.2688799E-03   87.64754       6.597548    
  2.2688799E-03  2.3068599E-03   66.74923       9.374756    
  2.3068599E-03  2.3457000E-03   69.11732       5.828303    
  2.3457000E-03  2.3652499E-03   82.83725       13.19095    
  2.3652499E-03  2.3852000E-03   83.75261       8.069420    
  2.3852000E-03  2.4251300E-03   62.17915       8.749463    
  2.4251300E-03  2.4659701E-03   64.76926       9.450633    
  2.4659701E-03  2.5923999E-03   56.04515       4.597828    
  2.5923999E-03  2.7253199E-03   57.40788       6.043151    
  2.7253199E-03  2.8650500E-03   50.14235       6.002009    
  2.8650500E-03  3.0119400E-03   45.80726       5.939007    
  3.0119400E-03  3.0881900E-03   44.35614       8.187328    
  3.0881900E-03  3.1663701E-03   40.60508       6.770779    
  3.1663701E-03  3.2465300E-03   40.55927       9.364318    
  3.2465300E-03  3.3287101E-03   38.48013       9.275847    
  3.3287101E-03  3.4993801E-03   34.92065       5.772969    
  3.4993801E-03  3.6787901E-03   30.41702       5.586789    
  3.6787901E-03  3.8674099E-03   29.00530       6.947085    
  3.8674099E-03  4.0656999E-03   28.53927       7.049673    
  4.0656999E-03  4.2741499E-03   25.22201       6.325700    
  4.2741499E-03  4.4932901E-03   23.64078       5.695477    
  4.4932901E-03  4.6070400E-03   23.31175       7.807177    
  4.6070400E-03  4.7236700E-03   25.59256       11.35430    
  4.7236700E-03  4.8432499E-03   20.53705       8.731833    
  4.8432499E-03  4.9658502E-03   23.76826       8.148737    
  4.9658502E-03  5.2204598E-03   19.47110       6.053044    
  5.2204598E-03  5.4881200E-03   17.75369       6.317493    
  5.4881200E-03  5.7695000E-03   19.99754       4.528856    
  5.7695000E-03  5.9155500E-03   16.70896       8.036722    
  5.9155500E-03  6.0653100E-03   15.77010       11.30396    
  6.0653100E-03  6.2188501E-03   14.55373       11.47732    
  6.2188501E-03  6.3762800E-03   15.75699       6.515754    
  6.3762800E-03  6.5377001E-03   16.26818       9.557963    
  6.5377001E-03  6.5923799E-03   17.51436       19.67661    
  6.5923799E-03  6.6475999E-03   11.95045       24.47029    
  6.6475999E-03  6.7031998E-03   13.64816       17.34104    
  6.7031998E-03  6.8728901E-03   11.75486       11.66904    
  6.8728901E-03  7.0468802E-03   12.05445       11.02696    
  7.0468802E-03  7.2252699E-03   12.39254       9.300732    
  7.2252699E-03  7.4081798E-03   11.50116       11.21865    
  7.4081798E-03  7.5957198E-03   12.56627       8.305429    
  7.5957198E-03  7.7880099E-03   11.43512       10.14144    
  7.7880099E-03  7.9851598E-03   9.285998       10.63902    
  7.9851598E-03  8.1873098E-03   9.480585       8.060666    
  8.1873098E-03  8.3945701E-03   10.74616       8.502214    
  8.3945701E-03  8.6070802E-03   9.746318       10.08557    
  8.6070802E-03  8.8249696E-03   8.797146       10.82522    
  8.8249696E-03  9.0483697E-03   8.205840       11.66028    
  9.0483697E-03  9.2774397E-03   10.54125       9.126545    
  9.2774397E-03  9.5122904E-03   7.913030       11.42076    
  9.5122904E-03  9.7530996E-03   8.809003       10.55301    
  9.7530996E-03  9.9999998E-03   7.487985       11.06992    
  9.9999998E-03  1.0253200E-02   7.572384       11.67157    
  1.0253200E-02  1.0512700E-02   6.447495       12.41475    
  1.0512700E-02  1.0778800E-02   8.197497       12.00589    
  1.0778800E-02  1.1051700E-02   6.223330       12.14771    
  1.1051700E-02  1.1331500E-02   6.800312       11.62635    
  1.1331500E-02  1.1618300E-02   5.542642       11.43295    
  1.1618300E-02  1.1912500E-02   6.796043       8.636740    
  1.1912500E-02  1.2214000E-02   6.551384       9.442719    
  1.2214000E-02  1.2523200E-02   5.238575       12.07128    
  1.2523200E-02  1.2840200E-02   5.063099       14.30613    
  1.2840200E-02  1.3165300E-02   5.348875       12.76378    
  1.3165300E-02  1.3498600E-02   5.546031       12.50112    
  1.3498600E-02  1.3840300E-02   5.159659       10.48001    
  1.3840300E-02  1.4190700E-02   4.378247       13.46762    
  1.4190700E-02  1.4549900E-02   4.266988       15.03263    
  1.4549900E-02  1.4918300E-02   4.572886       14.80426    
  1.4918300E-02  1.5295900E-02   3.679801       14.66192    
  1.5295900E-02  1.5683100E-02   4.825509       13.77312    
  1.5683100E-02  1.6080100E-02   3.291056       8.891141    
  1.6080100E-02  1.6487200E-02   4.373826       9.532483    
  1.6487200E-02  1.6904600E-02   3.108612       10.09726    
  1.6904600E-02  1.7332500E-02   2.794499       15.79111    
  1.7332500E-02  1.7771300E-02   3.910030       10.04332    
  1.7771300E-02  1.8221200E-02   2.732823       15.16167    
  1.8221200E-02  1.8682500E-02   3.667898       12.75526    
  1.8682500E-02  1.9155400E-02   3.748574       14.08351    
  1.9155400E-02  1.9640300E-02   2.887799       9.729980    
  1.9640300E-02  2.0000000E-02   2.616194       14.86990    
