 # Detector n:  1  HeIInflux 
 # N. of energy intervals 260
  1.0000100E-14  2.0000000E-13  3.3573251E+10   17.16644    
  2.0000000E-13  2.9297300E-13  7.5795390E+10   14.82859    
  2.9297300E-13  4.2916701E-13  1.2336219E+11   9.421855    
  4.2916701E-13  6.2867300E-13  1.6095750E+11   6.597431    
  6.2867300E-13  9.2092198E-13  2.1268062E+11   6.203269    
  9.2092198E-13  1.3490300E-12  2.9602169E+11   4.757709    
  1.3490300E-12  1.9761499E-12  3.9289297E+11   3.538091    
  1.9761499E-12  2.8947901E-12  5.3598627E+11   2.234431    
  2.8947901E-12  4.2404799E-12  6.5023561E+11   2.409774    
  4.2404799E-12  6.2117499E-12  7.5180311E+11   1.139486    
  6.2117499E-12  9.0993801E-12  7.5834098E+11   1.167096    
  9.0993801E-12  1.3329400E-11  6.9604521E+11   1.028506    
  1.3329400E-11  1.9525799E-11  5.2887090E+11   1.112788    
  1.9525799E-11  2.8602700E-11  3.2344064E+11   1.057015    
  2.8602700E-11  4.1899099E-11  1.5858939E+11   1.039495    
  4.1899099E-11  6.1376598E-11  6.6755736E+10  0.8586883    
  6.1376598E-11  8.9908601E-11  3.0436149E+10   1.156804    
  8.9908601E-11  1.3170399E-10  1.5435490E+10   1.497983    
  1.3170399E-10  1.9292901E-10  8.4414592E+09  0.8231923    
  1.9292901E-10  2.8261499E-10  5.2143939E+09   1.028841    
  2.8261499E-10  4.1399401E-10  3.4278364E+09  0.6340814    
  4.1399401E-10  5.3157900E-10  2.4509532E+09  0.6811337    
  5.3157900E-10  6.2506200E-10  1.9857773E+09  0.7498147    
  6.2506200E-10  6.8256001E-10  1.7913848E+09   1.264200    
  6.8256001E-10  8.3368101E-10  1.5189260E+09  0.9711235    
  8.3368101E-10  8.7642499E-10  1.2936504E+09   1.787879    
  8.7642499E-10  1.1253500E-09  1.1438926E+09  0.7270392    
  1.1253500E-09  1.4449800E-09  8.9576186E+08  0.7244956    
  1.4449800E-09  1.8553900E-09  6.9974278E+08   1.163818    
  1.8553900E-09  2.3823701E-09  5.4046502E+08  0.6936657    
  2.3823701E-09  3.0590199E-09  4.2732794E+08  0.8931984    
  3.0590199E-09  3.9278598E-09  3.2478067E+08  0.9411184    
  3.9278598E-09  5.0434799E-09  2.5828646E+08  0.9798847    
  5.0434799E-09  6.4759500E-09  1.9650562E+08  0.7390773    
  6.4759500E-09  8.3152898E-09  1.5451493E+08  0.6345853    
  8.3152898E-09  1.0677000E-08  1.2109059E+08  0.9253267    
  1.0677000E-08  1.3709600E-08  9.5735432E+07  0.7673690    
  1.3709600E-08  1.7603501E-08  7.5019704E+07  0.7004795    
  1.7603501E-08  2.2603301E-08  5.8910700E+07  0.8383718    
  2.2603301E-08  2.9023200E-08  4.5178432E+07  0.8936455    
  2.9023200E-08  3.7266499E-08  3.5522924E+07  0.7325467    
  3.7266499E-08  4.7851199E-08  2.7627472E+07  0.8421800    
  4.7851199E-08  6.1442101E-08  2.1500946E+07  0.7473400    
  6.1442101E-08  7.8893301E-08  1.6417777E+07  0.6269144    
  7.8893301E-08  1.0130100E-07  1.2925369E+07  0.7058413    
  1.0130100E-07  1.3007300E-07  1.0141596E+07  0.8009865    
  1.3007300E-07  1.6701701E-07   7787576.      0.8019692    
  1.6701701E-07  2.1445400E-07   6066927.      0.6745097    
  2.1445400E-07  2.7536399E-07   4747752.      0.8950488    
  2.7536399E-07  3.5357499E-07   3682584.      0.6885138    
  3.5357499E-07  4.5399901E-07   2859766.      0.8825250    
  4.5399901E-07  5.8294700E-07   2180856.      0.7201980    
  5.8294700E-07  7.4851800E-07   1673998.      0.6678953    
  7.4851800E-07  9.6111603E-07   1292494.      0.8466279    
  9.6111603E-07  1.2341000E-06   1003676.       1.071913    
  1.2341000E-06  1.3638900E-06   815744.5       1.252548    
  1.3638900E-06  1.5073300E-06   744596.0       1.373430    
  1.5073300E-06  1.5846100E-06   694632.2       1.773064    
  1.5846100E-06  1.6658601E-06   630655.3       1.798353    
  1.6658601E-06  1.8410600E-06   607093.7       1.518915    
  1.8410600E-06  2.0346799E-06   542027.8       1.249040    
  2.0346799E-06  2.2486699E-06   494495.2       1.153516    
  2.2486699E-06  2.4851699E-06   443996.4       1.356917    
  2.4851699E-06  2.6125899E-06   397266.3       1.707247    
  2.6125899E-06  2.7465401E-06   374744.1       2.115638    
  2.7465401E-06  2.8634900E-06   363956.8       1.562087    
  2.8634900E-06  3.0353899E-06   350996.3       1.657813    
  3.0353899E-06  3.3546301E-06   321683.9       1.704082    
  3.3546301E-06  3.7074401E-06   293759.1       1.210964    
  3.7074401E-06  4.0973500E-06   262337.9       1.085608    
  4.0973500E-06  4.3074201E-06   243823.7       1.278054    
  4.3074201E-06  4.5282700E-06   219802.9       2.103153    
  4.5282700E-06  5.0045101E-06   210741.1       1.043380    
  5.0045101E-06  5.5308401E-06   206630.4       1.348251    
  5.5308401E-06  6.2672698E-06   142317.8       1.549365    
  6.2672698E-06  7.1017398E-06   144307.2       1.460761    
  7.1017398E-06  8.0473301E-06   128691.2      0.8265088    
  8.0473301E-06  9.1188203E-06   110078.2      0.9640254    
  9.1188203E-06  1.0333000E-05   95105.64       1.300441    
  1.0333000E-05  1.1708800E-05   83872.68       1.047137    
  1.1708800E-05  1.3267800E-05   72894.00       1.565853    
  1.3267800E-05  1.5034400E-05   62500.68       1.018624    
  1.5034400E-05  1.7036200E-05   53079.38      0.8895397    
  1.7036200E-05  1.9304500E-05   45747.91       1.235525    
  1.9304500E-05  2.1334799E-05   41711.01       1.342265    
  2.1334799E-05  2.1874899E-05   37479.68       1.988832    
  2.1874899E-05  2.3578599E-05   35563.96       1.758096    
  2.3578599E-05  2.4175501E-05   34114.05       3.128938    
  2.4175501E-05  2.4787500E-05   33079.52       3.445004    
  2.4787500E-05  2.6058400E-05   31840.55       2.273220    
  2.6058400E-05  2.8087899E-05   31517.89       1.601548    
  2.8087899E-05  3.1827800E-05   32962.84      0.9326629    
  3.1827800E-05  3.4306700E-05   21907.81       1.586944    
  3.4306700E-05  3.5175199E-05   10778.12       2.881176    
  3.5175199E-05  3.6065601E-05   9761.169       4.033601    
  3.6065601E-05  4.0867701E-05   13260.25       1.753284    
  4.0867701E-05  4.6309200E-05   14812.60       1.579640    
  4.6309200E-05  5.2475199E-05   13723.38       1.681714    
  5.2475199E-05  5.6562199E-05   12051.64       1.747790    
  5.6562199E-05  5.9462200E-05   10994.68       2.210588    
  5.9462200E-05  6.2510902E-05   10708.04       1.738476    
  6.2510902E-05  6.7379500E-05   10102.18       2.156515    
  6.7379500E-05  7.6350902E-05   9821.025      0.8315151    
  7.6350902E-05  8.6516899E-05   7240.915       1.551668    
  8.6516899E-05  9.8036500E-05   4254.590       2.123586    
  9.8036500E-05  1.1109000E-04   5064.596       1.199987    
  1.1109000E-04  1.1678600E-04   4990.933       1.993167    
  1.1678600E-04  1.2277300E-04   3488.361       2.639324    
  1.2277300E-04  1.2906799E-04   4890.904       1.775484    
  1.2906799E-04  1.3568600E-04   5291.631       2.114363    
  1.3568600E-04  1.4264201E-04   3635.227       2.458623    
  1.4264201E-04  1.4995600E-04   2685.890       2.546151    
  1.4995600E-04  1.5764400E-04   2520.810       1.967178    
  1.5764400E-04  1.6163501E-04   2088.664       4.779431    
  1.6163501E-04  1.6572700E-04   2410.636       3.330470    
  1.6572700E-04  1.6992200E-04   2405.397       4.271243    
  1.6992200E-04  1.7422400E-04   2626.964       4.105907    
  1.7422400E-04  1.8315599E-04   2684.382       2.642772    
  1.8315599E-04  1.9254700E-04   2715.887       2.888294    
  1.9254700E-04  2.0241900E-04   2529.809       2.371119    
  2.0241900E-04  2.1279699E-04   1754.893       2.592166    
  2.1279699E-04  2.2370800E-04   1890.477       2.503711    
  2.2370800E-04  2.3517800E-04   1848.895       2.536679    
  2.3517800E-04  2.4723500E-04   1838.908       3.216021    
  2.4723500E-04  2.5991100E-04   1830.335       2.515611    
  2.5991100E-04  2.7323700E-04   1951.913       2.529391    
  2.7323700E-04  2.8015400E-04   1634.384       4.398898    
  2.8015400E-04  2.8724599E-04   1419.099       4.173911    
  2.8724599E-04  2.9451799E-04   1266.957       4.051706    
  2.9451799E-04  3.0197401E-04   1347.848       3.407989    
  3.0197401E-04  3.0961799E-04   1307.011       3.172424    
  3.0961799E-04  3.1745600E-04   1088.949       4.532750    
  3.1745600E-04  3.3373301E-04   1189.421       2.891145    
  3.3373301E-04  3.5084400E-04   1230.880       2.202110    
  3.5084400E-04  3.6883200E-04   1026.347       2.898371    
  3.6883200E-04  3.8774201E-04   958.2631       2.601766    
  3.8774201E-04  4.0762199E-04   903.4666       2.427487    
  4.0762199E-04  4.2852099E-04   753.3861       2.160819    
  4.2852099E-04  4.5049199E-04   694.7339       3.141551    
  4.5049199E-04  4.7358900E-04   712.9338       2.246340    
  4.7358900E-04  4.9787102E-04   683.2255       2.739353    
  4.9787102E-04  5.1047403E-04   681.2293       3.072586    
  5.1047403E-04  5.2339700E-04   644.4831       3.673477    
  5.2339700E-04  5.3664698E-04   525.2406       4.101614    
  5.3664698E-04  5.5023201E-04   510.2793       5.185890    
  5.5023201E-04  5.7844300E-04   494.6827       2.460259    
  5.7844300E-04  6.0810102E-04   464.4373       2.951754    
  6.0810102E-04  6.3927902E-04   428.6176       3.107509    
  6.3927902E-04  6.7205500E-04   375.7488       2.723006    
  6.7205500E-04  7.0651202E-04   380.1467       2.444621    
  7.0651202E-04  7.4273598E-04   328.8917       2.814766    
  7.4273598E-04  7.8081700E-04   275.4396       2.255291    
  7.8081700E-04  8.2085002E-04   224.1465       3.570137    
  8.2085002E-04  8.6293602E-04   209.5170       3.629225    
  8.6293602E-04  9.0717903E-04   186.8081       3.703194    
  9.0717903E-04  9.5369201E-04   190.3900       1.431900    
  9.5369201E-04  9.6163998E-04   161.2746       6.338685    
  9.6163998E-04  9.7783399E-04   154.9325       6.062365    
  9.7783399E-04  1.0025901E-03   146.4893       4.466141    
  1.0025901E-03  1.0539900E-03   143.8227       4.330185    
  1.0539900E-03  1.1080300E-03   139.9366       4.101668    
  1.1080300E-03  1.1648400E-03   114.7088       3.951935    
  1.1648400E-03  1.1943300E-03   111.5065       4.642638    
  1.1943300E-03  1.2245600E-03   109.4454       5.175328    
  1.2245600E-03  1.2873500E-03   107.4852       3.816552    
  1.2873500E-03  1.3533500E-03   100.6882       4.362388    
  1.3533500E-03  1.4227401E-03   97.39171       3.668534    
  1.4227401E-03  1.4956900E-03   87.83208       4.428444    
  1.4956900E-03  1.5335500E-03   93.31069       5.577326    
  1.5335500E-03  1.5723699E-03   84.84473       5.820061    
  1.5723699E-03  1.6121800E-03   86.78373       5.425832    
  1.6121800E-03  1.6529900E-03   86.88932       6.540731    
  1.6529900E-03  1.7377400E-03   82.15620       4.567078    
  1.7377400E-03  1.8268300E-03   73.21205       4.565084    
  1.8268300E-03  1.8730800E-03   77.29925       6.754361    
  1.8730800E-03  1.9205000E-03   71.25092       6.062468    
  1.9205000E-03  1.9691200E-03   60.60954       5.036183    
  1.9691200E-03  2.0189700E-03   63.44000       4.863928    
  2.0189700E-03  2.1224800E-03   54.36403       4.474353    
  2.1224800E-03  2.2313001E-03   53.05400       2.945258    
  2.2313001E-03  2.2688799E-03   45.74665       7.776153    
  2.2688799E-03  2.3068599E-03   50.80093       6.620106    
  2.3068599E-03  2.3457000E-03   52.35724       5.543814    
  2.3457000E-03  2.3652499E-03   51.40327       10.33601    
  2.3652499E-03  2.3852000E-03   57.26719       10.04220    
  2.3852000E-03  2.4251300E-03   44.90069       9.604829    
  2.4251300E-03  2.4659701E-03   46.81607       4.942320    
  2.4659701E-03  2.5923999E-03   38.94201       5.105781    
  2.5923999E-03  2.7253199E-03   36.91069       3.438370    
  2.7253199E-03  2.8650500E-03   34.05222       5.936676    
  2.8650500E-03  3.0119400E-03   30.50491       6.726212    
  3.0119400E-03  3.0881900E-03   27.88402       9.181675    
  3.0881900E-03  3.1663701E-03   27.32355       5.200696    
  3.1663701E-03  3.2465300E-03   24.63761       9.009091    
  3.2465300E-03  3.3287101E-03   23.39340       6.865098    
  3.3287101E-03  3.4993801E-03   20.33770       7.928571    
  3.4993801E-03  3.6787901E-03   20.96133       5.410836    
  3.6787901E-03  3.8674099E-03   20.99110       6.361822    
  3.8674099E-03  4.0656999E-03   17.68258       4.467002    
  4.0656999E-03  4.2741499E-03   15.30904       5.460354    
  4.2741499E-03  4.4932901E-03   14.07981       6.001697    
  4.4932901E-03  4.6070400E-03   14.50299       10.89806    
  4.6070400E-03  4.7236700E-03   13.00308       8.834351    
  4.7236700E-03  4.8432499E-03   14.85337       10.65396    
  4.8432499E-03  4.9658502E-03   14.89669       6.731241    
  4.9658502E-03  5.2204598E-03   11.90930       4.825634    
  5.2204598E-03  5.4881200E-03   11.59214       9.723637    
  5.4881200E-03  5.7695000E-03   10.93293       7.042395    
  5.7695000E-03  5.9155500E-03   9.080081       11.16344    
  5.9155500E-03  6.0653100E-03   10.12235       8.754449    
  6.0653100E-03  6.2188501E-03   10.12577       7.567705    
  6.2188501E-03  6.3762800E-03   9.520573       11.71142    
  6.3762800E-03  6.5377001E-03   9.651952       7.337651    
  6.5377001E-03  6.5923799E-03   7.465952       13.33246    
  6.5923799E-03  6.6475999E-03   9.524226       10.01020    
  6.6475999E-03  6.7031998E-03   8.812201       13.73278    
  6.7031998E-03  6.8728901E-03   7.968242       7.388691    
  6.8728901E-03  7.0468802E-03   8.167130       11.74504    
  7.0468802E-03  7.2252699E-03   6.524197       7.781273    
  7.2252699E-03  7.4081798E-03   6.613832       6.926295    
  7.4081798E-03  7.5957198E-03   5.945498       12.23762    
  7.5957198E-03  7.7880099E-03   6.259751       10.04066    
  7.7880099E-03  7.9851598E-03   6.406238       9.040267    
  7.9851598E-03  8.1873098E-03   4.736567       15.20659    
  8.1873098E-03  8.3945701E-03   5.692956       6.591885    
  8.3945701E-03  8.6070802E-03   6.139125       7.653760    
  8.6070802E-03  8.8249696E-03   6.172659       10.93833    
  8.8249696E-03  9.0483697E-03   4.382149       8.422640    
  9.0483697E-03  9.2774397E-03   5.966035       10.40128    
  9.2774397E-03  9.5122904E-03   5.540144       12.86670    
  9.5122904E-03  9.7530996E-03   4.189953       11.63378    
  9.7530996E-03  9.9999998E-03   4.154103       13.74602    
  9.9999998E-03  1.0253200E-02   5.256669       8.887080    
  1.0253200E-02  1.0512700E-02   3.919435       6.836404    
  1.0512700E-02  1.0778800E-02   4.227064       13.81578    
  1.0778800E-02  1.1051700E-02   4.040522       10.01992    
  1.1051700E-02  1.1331500E-02   4.269229       14.14780    
  1.1331500E-02  1.1618300E-02   3.912645       10.06986    
  1.1618300E-02  1.1912500E-02   4.104139       8.433712    
  1.1912500E-02  1.2214000E-02   3.191654       10.78458    
  1.2214000E-02  1.2523200E-02   3.277063       12.43983    
  1.2523200E-02  1.2840200E-02   3.136906       13.84863    
  1.2840200E-02  1.3165300E-02   2.865426       13.32321    
  1.3165300E-02  1.3498600E-02   2.909577       10.94745    
  1.3498600E-02  1.3840300E-02   2.763245       16.52728    
  1.3840300E-02  1.4190700E-02   2.740630       9.169065    
  1.4190700E-02  1.4549900E-02   2.191011       9.969967    
  1.4549900E-02  1.4918300E-02   2.439507       15.67526    
  1.4918300E-02  1.5295900E-02   2.745612       8.048300    
  1.5295900E-02  1.5683100E-02   2.393994       8.837767    
  1.5683100E-02  1.6080100E-02   2.637479       10.84792    
  1.6080100E-02  1.6487200E-02   2.368391       7.973772    
  1.6487200E-02  1.6904600E-02   1.632402       14.21031    
  1.6904600E-02  1.7332500E-02   1.976506       15.62554    
  1.7332500E-02  1.7771300E-02   1.734506       8.942252    
  1.7771300E-02  1.8221200E-02   2.090787       13.74580    
  1.8221200E-02  1.8682500E-02   2.046634       11.59349    
  1.8682500E-02  1.9155400E-02   1.638856       11.53287    
  1.9155400E-02  1.9640300E-02   1.488127       9.756439    
  1.9640300E-02  2.0000000E-02   1.574212       20.72460    
