 # Detector n:            1   HeIInflux 
 # N. of energy intervals         260
  1.0000100E-14  2.0000000E-13  3.6303995E+10   14.12221    
  2.0000000E-13  2.9297300E-13  6.0076110E+10   11.25111    
  2.9297300E-13  4.2916701E-13  1.4963396E+11   10.71536    
  4.2916701E-13  6.2867300E-13  2.2070811E+11   7.231746    
  6.2867300E-13  9.2092198E-13  2.5200609E+11   6.100218    
  9.2092198E-13  1.3490300E-12  3.6229546E+11   3.807106    
  1.3490300E-12  1.9761499E-12  5.0440769E+11   1.353280    
  1.9761499E-12  2.8947901E-12  6.4558976E+11  0.8072665    
  2.8947901E-12  4.2404799E-12  8.0465324E+11   1.218618    
  4.2404799E-12  6.2117499E-12  9.0332129E+11   1.380182    
  6.2117499E-12  9.0993801E-12  9.2823565E+11   1.127306    
  9.0993801E-12  1.3329400E-11  8.3578611E+11  0.7610320    
  1.3329400E-11  1.9525799E-11  6.4231021E+11  0.4998620    
  1.9525799E-11  2.8602700E-11  3.9774657E+11  0.8917136    
  2.8602700E-11  4.1899099E-11  1.9598057E+11   1.524055    
  4.1899099E-11  6.1376598E-11  7.9353299E+10  0.9628733    
  6.1376598E-11  8.9908601E-11  3.1513098E+10   2.073902    
  8.9908601E-11  1.3170399E-10  1.2108173E+10   2.516250    
  1.3170399E-10  1.9292901E-10  4.6068244E+09   2.422193    
  1.9292901E-10  2.8261499E-10  2.3262774E+09   1.945012    
  2.8261499E-10  4.1399401E-10  1.4404211E+09  0.3975452    
  4.1399401E-10  5.3157900E-10  1.0233416E+09   1.406488    
  5.3157900E-10  6.2506200E-10  8.0669478E+08   1.708417    
  6.2506200E-10  6.8256001E-10  6.8832902E+08   2.127431    
  6.8256001E-10  8.3368101E-10  6.0553338E+08   1.137217    
  8.3368101E-10  8.7642499E-10  5.4796154E+08   3.090204    
  8.7642499E-10  1.1253500E-09  4.3600982E+08  0.6151549    
  1.1253500E-09  1.4449800E-09  3.3757443E+08   1.680705    
  1.4449800E-09  1.8553900E-09  2.6354851E+08   1.107861    
  1.8553900E-09  2.3823701E-09  2.0243323E+08  0.6149507    
  2.3823701E-09  3.0590199E-09  1.5298773E+08  0.7150982    
  3.0590199E-09  3.9278598E-09  1.1862645E+08   1.811667    
  3.9278598E-09  5.0434799E-09  9.0524192E+07  0.5099560    
  5.0434799E-09  6.4759500E-09  7.0562400E+07  0.8792960    
  6.4759500E-09  8.3152898E-09  5.4681540E+07  0.7930998    
  8.3152898E-09  1.0677000E-08  4.0951320E+07   2.063252    
  1.0677000E-08  1.3709600E-08  3.2308664E+07  0.7171402    
  1.3709600E-08  1.7603501E-08  2.4199248E+07  0.5114586    
  1.7603501E-08  2.2603301E-08  1.8709262E+07  0.7413789    
  2.2603301E-08  2.9023200E-08  1.4670440E+07   1.100204    
  2.9023200E-08  3.7266499E-08  1.0930681E+07   1.915076    
  3.7266499E-08  4.7851199E-08   8384340.       1.138635    
  4.7851199E-08  6.1442101E-08   6614272.       1.299805    
  6.1442101E-08  7.8893301E-08   4856688.      0.8300462    
  7.8893301E-08  1.0130100E-07   3719722.      0.6137229    
  1.0130100E-07  1.3007300E-07   2915952.       1.678885    
  1.3007300E-07  1.6701701E-07   2189120.      0.7091292    
  1.6701701E-07  2.1445400E-07   1709781.       2.430325    
  2.1445400E-07  2.7536399E-07   1278350.       1.874011    
  2.7536399E-07  3.5357499E-07   973667.7       2.213896    
  3.5357499E-07  4.5399901E-07   705659.8       1.137459    
  4.5399901E-07  5.8294700E-07   562385.1       2.130294    
  5.8294700E-07  7.4851800E-07   417133.3      0.8058162    
  7.4851800E-07  9.6111603E-07   307346.2       1.914121    
  9.6111603E-07  1.2341000E-06   230958.4       1.462821    
  1.2341000E-06  1.3638900E-06   202478.6       2.934921    
  1.3638900E-06  1.5073300E-06   163401.4       4.416027    
  1.5073300E-06  1.5846100E-06   160063.6       1.816651    
  1.5846100E-06  1.6658601E-06   150306.3       3.670785    
  1.6658601E-06  1.8410600E-06   135315.8       3.687081    
  1.8410600E-06  2.0346799E-06   118805.3       1.947684    
  2.0346799E-06  2.2486699E-06   108693.9       3.109802    
  2.2486699E-06  2.4851699E-06   99102.59       2.653448    
  2.4851699E-06  2.6125899E-06   88356.91       3.059773    
  2.6125899E-06  2.7465401E-06   84629.50       2.034778    
  2.7465401E-06  2.8634900E-06   74483.85       4.451320    
  2.8634900E-06  3.0353899E-06   70915.90       4.342133    
  3.0353899E-06  3.3546301E-06   66953.59       2.138410    
  3.3546301E-06  3.7074401E-06   62337.75       1.566744    
  3.7074401E-06  4.0973500E-06   57205.51       4.506701    
  4.0973500E-06  4.3074201E-06   48490.89       2.732825    
  4.3074201E-06  4.5282700E-06   47399.37       3.361082    
  4.5282700E-06  5.0045101E-06   41581.42       1.361405    
  5.0045101E-06  5.5308401E-06   42238.66      0.7042737    
  5.5308401E-06  6.2672698E-06   28608.84       2.293744    
  6.2672698E-06  7.1017398E-06   27985.60       2.702855    
  7.1017398E-06  8.0473301E-06   25345.06       2.297402    
  8.0473301E-06  9.1188203E-06   21701.24       1.436427    
  9.1188203E-06  1.0333000E-05   18700.30       2.249003    
  1.0333000E-05  1.1708800E-05   15897.83       2.441630    
  1.1708800E-05  1.3267800E-05   12863.92       1.573989    
  1.3267800E-05  1.5034400E-05   11586.42       2.941665    
  1.5034400E-05  1.7036200E-05   9509.783       1.965531    
  1.7036200E-05  1.9304500E-05   8325.043       1.271746    
  1.9304500E-05  2.1334799E-05   7693.279       1.164105    
  2.1334799E-05  2.1874899E-05   5940.278       7.519911    
  2.1874899E-05  2.3578599E-05   6769.978      0.7824525    
  2.3578599E-05  2.4175501E-05   6753.345       6.876616    
  2.4175501E-05  2.4787500E-05   5944.812       7.813389    
  2.4787500E-05  2.6058400E-05   5620.560       7.947395    
  2.6058400E-05  2.8087899E-05   5625.941       3.551587    
  2.8087899E-05  3.1827800E-05   5936.067       3.049885    
  3.1827800E-05  3.4306700E-05   3958.329       4.852368    
  3.4306700E-05  3.5175199E-05   1797.476       10.41198    
  3.5175199E-05  3.6065601E-05   1521.448       14.73765    
  3.6065601E-05  4.0867701E-05   2235.955       3.401343    
  4.0867701E-05  4.6309200E-05   2612.445       3.287962    
  4.6309200E-05  5.2475199E-05   2341.200       1.535492    
  5.2475199E-05  5.6562199E-05   2127.662       1.813045    
  5.6562199E-05  5.9462200E-05   1763.054      0.7647951    
  5.9462200E-05  6.2510902E-05   1915.291       5.644811    
  6.2510902E-05  6.7379500E-05   1625.199       2.968979    
  6.7379500E-05  7.6350902E-05   1798.415       2.463739    
  7.6350902E-05  8.6516899E-05   1247.067       2.030812    
  8.6516899E-05  9.8036500E-05   722.8707       4.485789    
  9.8036500E-05  1.1109000E-04   910.6522       3.390195    
  1.1109000E-04  1.1678600E-04   791.6708       8.316057    
  1.1678600E-04  1.2277300E-04   625.6554       7.597244    
  1.2277300E-04  1.2906799E-04   886.8826       2.808767    
  1.2906799E-04  1.3568600E-04   791.3838       4.839412    
  1.3568600E-04  1.4264201E-04   674.7448       7.758364    
  1.4264201E-04  1.4995600E-04   515.3727       5.636796    
  1.4995600E-04  1.5764400E-04   430.6151       6.405509    
  1.5764400E-04  1.6163501E-04   313.5839       5.223790    
  1.6163501E-04  1.6572700E-04   428.4985       9.311985    
  1.6572700E-04  1.6992200E-04   419.2440       10.22494    
  1.6992200E-04  1.7422400E-04   467.0252       6.758495    
  1.7422400E-04  1.8315599E-04   441.2568       7.601207    
  1.8315599E-04  1.9254700E-04   434.0695       6.927466    
  1.9254700E-04  2.0241900E-04   414.9761       4.498044    
  2.0241900E-04  2.1279699E-04   354.6713       7.596395    
  2.1279699E-04  2.2370800E-04   328.0833       7.701067    
  2.2370800E-04  2.3517800E-04   369.8077       7.802760    
  2.3517800E-04  2.4723500E-04   310.9788       2.274238    
  2.4723500E-04  2.5991100E-04   277.2512       4.021684    
  2.5991100E-04  2.7323700E-04   347.3444       11.03890    
  2.7323700E-04  2.8015400E-04   325.1239       13.05634    
  2.8015400E-04  2.8724599E-04   314.2572       6.449718    
  2.8724599E-04  2.9451799E-04   236.7481       4.787752    
  2.9451799E-04  3.0197401E-04   251.3780       7.891671    
  3.0197401E-04  3.0961799E-04   259.4418       8.822266    
  3.0961799E-04  3.1745600E-04   223.8640       2.835582    
  3.1745600E-04  3.3373301E-04   201.3268       10.12639    
  3.3373301E-04  3.5084400E-04   215.5233       4.334429    
  3.5084400E-04  3.6883200E-04   217.7245       5.667817    
  3.6883200E-04  3.8774201E-04   190.9028       10.09425    
  3.8774201E-04  4.0762199E-04   197.0674       7.996987    
  4.0762199E-04  4.2852099E-04   156.4659       4.990596    
  4.2852099E-04  4.5049199E-04   156.0129       5.346937    
  4.5049199E-04  4.7358900E-04   147.7687       8.582083    
  4.7358900E-04  4.9787102E-04   125.4422       2.982739    
  4.9787102E-04  5.1047403E-04   134.2752       8.329518    
  5.1047403E-04  5.2339700E-04   146.8987       5.216334    
  5.2339700E-04  5.3664698E-04   106.9490       8.585902    
  5.3664698E-04  5.5023201E-04   115.6713       6.808916    
  5.5023201E-04  5.7844300E-04   107.9057       4.820391    
  5.7844300E-04  6.0810102E-04   106.1420       4.415987    
  6.0810102E-04  6.3927902E-04   93.10220       7.097037    
  6.3927902E-04  6.7205500E-04   92.23135       7.330245    
  6.7205500E-04  7.0651202E-04   92.16064       4.960347    
  7.0651202E-04  7.4273598E-04   72.06611       4.921709    
  7.4273598E-04  7.8081700E-04   69.49372       5.370951    
  7.8081700E-04  8.2085002E-04   56.13297       10.41135    
  8.2085002E-04  8.6293602E-04   50.80451       3.216512    
  8.6293602E-04  9.0717903E-04   49.40367       6.984920    
  9.0717903E-04  9.5369201E-04   48.89453       5.586284    
  9.5369201E-04  9.6163998E-04   32.77956       28.83965    
  9.6163998E-04  9.7783399E-04   46.25569       10.11807    
  9.7783399E-04  1.0025901E-03   40.40664       4.734476    
  1.0025901E-03  1.0539900E-03   38.01322       10.81849    
  1.0539900E-03  1.1080300E-03   36.85176       5.472838    
  1.1080300E-03  1.1648400E-03   35.73985       6.572403    
  1.1648400E-03  1.1943300E-03   32.07057       7.180716    
  1.1943300E-03  1.2245600E-03   40.87169       9.338899    
  1.2245600E-03  1.2873500E-03   35.97585       10.00606    
  1.2873500E-03  1.3533500E-03   36.00389       5.446929    
  1.3533500E-03  1.4227401E-03   39.76161       3.731309    
  1.4227401E-03  1.4956900E-03   34.98237       3.138787    
  1.4956900E-03  1.5335500E-03   35.86905       14.11706    
  1.5335500E-03  1.5723699E-03   31.23547       11.91543    
  1.5723699E-03  1.6121800E-03   28.62840       6.922232    
  1.6121800E-03  1.6529900E-03   34.33937       3.467592    
  1.6529900E-03  1.7377400E-03   32.47450       3.135187    
  1.7377400E-03  1.8268300E-03   31.41959       5.819118    
  1.8268300E-03  1.8730800E-03   32.10288       7.136953    
  1.8730800E-03  1.9205000E-03   30.93713       8.093697    
  1.9205000E-03  1.9691200E-03   29.60443       6.587735    
  1.9691200E-03  2.0189700E-03   34.36429       11.19702    
  2.0189700E-03  2.1224800E-03   25.60456       5.950223    
  2.1224800E-03  2.2313001E-03   26.13428       9.131819    
  2.2313001E-03  2.2688799E-03   25.80868       6.050835    
  2.2688799E-03  2.3068599E-03   24.96701       13.52234    
  2.3068599E-03  2.3457000E-03   29.86508       8.264564    
  2.3457000E-03  2.3652499E-03   21.36729       16.28708    
  2.3652499E-03  2.3852000E-03   30.87777       15.04928    
  2.3852000E-03  2.4251300E-03   28.71314       8.929742    
  2.4251300E-03  2.4659701E-03   30.24738       2.608916    
  2.4659701E-03  2.5923999E-03   24.38236       6.792878    
  2.5923999E-03  2.7253199E-03   24.31821       8.972878    
  2.7253199E-03  2.8650500E-03   21.25569       7.825720    
  2.8650500E-03  3.0119400E-03   21.59363       6.019649    
  3.0119400E-03  3.0881900E-03   19.08772       6.215104    
  3.0881900E-03  3.1663701E-03   18.59108       4.122849    
  3.1663701E-03  3.2465300E-03   16.61703       7.029520    
  3.2465300E-03  3.3287101E-03   18.06081       8.756715    
  3.3287101E-03  3.4993801E-03   18.39649       8.515743    
  3.4993801E-03  3.6787901E-03   16.75946       6.039820    
  3.6787901E-03  3.8674099E-03   15.33737       5.070455    
  3.8674099E-03  4.0656999E-03   18.08960       10.91735    
  4.0656999E-03  4.2741499E-03   16.16748       5.593941    
  4.2741499E-03  4.4932901E-03   15.47196       3.970295    
  4.4932901E-03  4.6070400E-03   14.01659       4.458451    
  4.6070400E-03  4.7236700E-03   14.63396       5.717235    
  4.7236700E-03  4.8432499E-03   16.26809       4.223670    
  4.8432499E-03  4.9658502E-03   11.72083       10.09911    
  4.9658502E-03  5.2204598E-03   11.39644       3.980339    
  5.2204598E-03  5.4881200E-03   12.77082       4.174681    
  5.4881200E-03  5.7695000E-03   10.88680       6.663614    
  5.7695000E-03  5.9155500E-03   10.58869       12.38824    
  5.9155500E-03  6.0653100E-03   11.13267       4.803298    
  6.0653100E-03  6.2188501E-03   7.883029       11.78969    
  6.2188501E-03  6.3762800E-03   8.966599       4.974620    
  6.3762800E-03  6.5377001E-03   9.545559       5.511761    
  6.5377001E-03  6.5923799E-03   11.22997       6.356180    
  6.5923799E-03  6.6475999E-03   10.81507       12.23608    
  6.6475999E-03  6.7031998E-03   8.276995       14.20885    
  6.7031998E-03  6.8728901E-03   8.383791       12.50812    
  6.8728901E-03  7.0468802E-03   7.849158       5.971122    
  7.0468802E-03  7.2252699E-03   7.811514       2.884132    
  7.2252699E-03  7.4081798E-03   7.344400       3.127091    
  7.4081798E-03  7.5957198E-03   7.372678       8.025572    
  7.5957198E-03  7.7880099E-03   6.948561       14.34195    
  7.7880099E-03  7.9851598E-03   6.901868       11.89192    
  7.9851598E-03  8.1873098E-03   6.388136       8.982168    
  8.1873098E-03  8.3945701E-03   6.278758       6.880925    
  8.3945701E-03  8.6070802E-03   5.540409       4.199625    
  8.6070802E-03  8.8249696E-03   6.931293       13.75774    
  8.8249696E-03  9.0483697E-03   5.828531       18.98534    
  9.0483697E-03  9.2774397E-03   7.125329       2.950963    
  9.2774397E-03  9.5122904E-03   5.342628       5.189561    
  9.5122904E-03  9.7530996E-03   5.408241       7.474015    
  9.7530996E-03  9.9999998E-03   3.372878       2.448482    
  9.9999998E-03  1.0253200E-02   4.116854       7.322832    
  1.0253200E-02  1.0512700E-02   4.935737       7.488949    
  1.0512700E-02  1.0778800E-02   4.550484       14.74994    
  1.0778800E-02  1.1051700E-02   3.652048       4.610947    
  1.1051700E-02  1.1331500E-02   3.860036       9.052334    
  1.1331500E-02  1.1618300E-02   3.999317       11.11658    
  1.1618300E-02  1.1912500E-02   3.464152       10.40367    
  1.1912500E-02  1.2214000E-02   3.133505       19.39664    
  1.2214000E-02  1.2523200E-02   3.530531       9.575264    
  1.2523200E-02  1.2840200E-02   3.467757       9.102997    
  1.2840200E-02  1.3165300E-02   3.394381       14.52493    
  1.3165300E-02  1.3498600E-02   4.063445       10.11965    
  1.3498600E-02  1.3840300E-02   4.383015       14.23766    
  1.3840300E-02  1.4190700E-02   3.622789       12.90499    
  1.4190700E-02  1.4549900E-02   3.016606       11.66256    
  1.4549900E-02  1.4918300E-02   3.571438       15.70071    
  1.4918300E-02  1.5295900E-02   3.078133       12.27165    
  1.5295900E-02  1.5683100E-02   3.266896       9.808830    
  1.5683100E-02  1.6080100E-02   3.027221       2.998379    
  1.6080100E-02  1.6487200E-02   2.675317       13.83414    
  1.6487200E-02  1.6904600E-02   2.944180       10.04661    
  1.6904600E-02  1.7332500E-02   2.710920       8.038400    
  1.7332500E-02  1.7771300E-02   2.410349       11.30471    
  1.7771300E-02  1.8221200E-02   2.713034       6.678898    
  1.8221200E-02  1.8682500E-02   2.152671       4.803535    
  1.8682500E-02  1.9155400E-02   1.896225       4.989377    
  1.9155400E-02  1.9640300E-02   1.996774       11.34285    
  1.9640300E-02  2.0000000E-02   1.982079       12.85548    
