 # Detector n:  1  HeIInflux 
 # N. of energy intervals 260
  1.0000100E-14  2.0000000E-13  2.3647285E+10   18.04290    
  2.0000000E-13  2.9297300E-13  7.7573865E+10   14.25658    
  2.9297300E-13  4.2916701E-13  9.6572678E+10   9.564704    
  4.2916701E-13  6.2867300E-13  1.5871843E+11   4.942306    
  6.2867300E-13  9.2092198E-13  1.8878212E+11   6.309863    
  9.2092198E-13  1.3490300E-12  2.7000563E+11   4.948116    
  1.3490300E-12  1.9761499E-12  3.8673341E+11   3.365639    
  1.9761499E-12  2.8947901E-12  4.9630459E+11   2.084144    
  2.8947901E-12  4.2404799E-12  5.9332421E+11   1.559129    
  4.2404799E-12  6.2117499E-12  6.6713623E+11   1.478764    
  6.2117499E-12  9.0993801E-12  7.0058915E+11  0.8157656    
  9.0993801E-12  1.3329400E-11  6.3013185E+11   1.126414    
  1.3329400E-11  1.9525799E-11  4.7607421E+11  0.8670711    
  1.9525799E-11  2.8602700E-11  2.9061969E+11  0.8654873    
  2.8602700E-11  4.1899099E-11  1.2904952E+11   1.096973    
  4.1899099E-11  6.1376598E-11  5.1134751E+10  0.7300656    
  6.1376598E-11  8.9908601E-11  2.2666123E+10  0.9645246    
  8.9908601E-11  1.3170399E-10  1.1557904E+10   1.076778    
  1.3170399E-10  1.9292901E-10  7.0819236E+09   1.419646    
  1.9292901E-10  2.8261499E-10  4.4499569E+09  0.7320876    
  2.8261499E-10  4.1399401E-10  2.9695470E+09  0.9055364    
  4.1399401E-10  5.3157900E-10  2.1804524E+09  0.7856250    
  5.3157900E-10  6.2506200E-10  1.8066200E+09   1.391552    
  6.2506200E-10  6.8256001E-10  1.5140006E+09   1.404128    
  6.8256001E-10  8.3368101E-10  1.3366610E+09   1.084059    
  8.3368101E-10  8.7642499E-10  1.1779101E+09   2.074833    
  8.7642499E-10  1.1253500E-09  1.0257165E+09  0.8697890    
  1.1253500E-09  1.4449800E-09  8.0082630E+08  0.8706836    
  1.4449800E-09  1.8553900E-09  6.1948422E+08  0.6154005    
  1.8553900E-09  2.3823701E-09  4.7686986E+08  0.7702602    
  2.3823701E-09  3.0590199E-09  3.7309331E+08  0.9213701    
  3.0590199E-09  3.9278598E-09  2.9266960E+08  0.8194228    
  3.9278598E-09  5.0434799E-09  2.2677226E+08   1.030465    
  5.0434799E-09  6.4759500E-09  1.8069898E+08  0.8210642    
  6.4759500E-09  8.3152898E-09  1.4024714E+08  0.7659066    
  8.3152898E-09  1.0677000E-08  1.0920368E+08  0.8109152    
  1.0677000E-08  1.3709600E-08  8.4413416E+07  0.6068545    
  1.3709600E-08  1.7603501E-08  6.6845616E+07  0.4232776    
  1.7603501E-08  2.2603301E-08  5.2801764E+07  0.7436423    
  2.2603301E-08  2.9023200E-08  4.1061040E+07  0.8318138    
  2.9023200E-08  3.7266499E-08  3.1931574E+07  0.8832488    
  3.7266499E-08  4.7851199E-08  2.4881092E+07  0.7469336    
  4.7851199E-08  6.1442101E-08  1.9210230E+07  0.7855614    
  6.1442101E-08  7.8893301E-08  1.4899717E+07  0.7423325    
  7.8893301E-08  1.0130100E-07  1.1613204E+07  0.6149095    
  1.0130100E-07  1.3007300E-07   9121628.      0.8136569    
  1.3007300E-07  1.6701701E-07   7069158.      0.8256073    
  1.6701701E-07  2.1445400E-07   5553297.      0.8294942    
  2.1445400E-07  2.7536399E-07   4221641.      0.7139402    
  2.7536399E-07  3.5357499E-07   3315039.      0.7511789    
  3.5357499E-07  4.5399901E-07   2582752.      0.6608416    
  4.5399901E-07  5.8294700E-07   1982390.      0.8479190    
  5.8294700E-07  7.4851800E-07   1509481.      0.6151672    
  7.4851800E-07  9.6111603E-07   1162551.      0.7981034    
  9.6111603E-07  1.2341000E-06   910642.1      0.9275244    
  1.2341000E-06  1.3638900E-06   766560.0       1.158857    
  1.3638900E-06  1.5073300E-06   685171.4       1.201058    
  1.5073300E-06  1.5846100E-06   665172.9       1.385649    
  1.5846100E-06  1.6658601E-06   612381.5       2.163853    
  1.6658601E-06  1.8410600E-06   543702.2       1.006635    
  1.8410600E-06  2.0346799E-06   482146.5      0.9545925    
  2.0346799E-06  2.2486699E-06   444530.9       1.319883    
  2.2486699E-06  2.4851699E-06   394361.2       1.164814    
  2.4851699E-06  2.6125899E-06   369455.8       2.168313    
  2.6125899E-06  2.7465401E-06   357572.0       1.656794    
  2.7465401E-06  2.8634900E-06   336021.5       2.285810    
  2.8634900E-06  3.0353899E-06   314227.8       1.652765    
  3.0353899E-06  3.3546301E-06   293030.9       1.380562    
  3.3546301E-06  3.7074401E-06   263415.8       1.331809    
  3.7074401E-06  4.0973500E-06   232388.6       1.550811    
  4.0973500E-06  4.3074201E-06   219951.2       2.178974    
  4.3074201E-06  4.5282700E-06   211033.0       1.685028    
  4.5282700E-06  5.0045101E-06   186550.7       1.161750    
  5.0045101E-06  5.5308401E-06   187694.6       1.353765    
  5.5308401E-06  6.2672698E-06   130185.7       1.275225    
  6.2672698E-06  7.1017398E-06   127909.7       1.054620    
  7.1017398E-06  8.0473301E-06   111487.0      0.9114339    
  8.0473301E-06  9.1188203E-06   97526.90       1.074458    
  9.1188203E-06  1.0333000E-05   85747.67       1.355238    
  1.0333000E-05  1.1708800E-05   74746.52       1.526545    
  1.1708800E-05  1.3267800E-05   64826.29       1.085651    
  1.3267800E-05  1.5034400E-05   56535.45       1.649584    
  1.5034400E-05  1.7036200E-05   49058.47       1.015472    
  1.7036200E-05  1.9304500E-05   42350.77       1.355095    
  1.9304500E-05  2.1334799E-05   36722.45       1.221621    
  2.1334799E-05  2.1874899E-05   35629.66       3.276200    
  2.1874899E-05  2.3578599E-05   32748.79       1.924793    
  2.3578599E-05  2.4175501E-05   30157.03       1.096922    
  2.4175501E-05  2.4787500E-05   27835.67       2.692240    
  2.4787500E-05  2.6058400E-05   28581.48       2.570487    
  2.6058400E-05  2.8087899E-05   28412.88       1.531002    
  2.8087899E-05  3.1827800E-05   29802.33       1.241234    
  3.1827800E-05  3.4306700E-05   19687.94       1.530654    
  3.4306700E-05  3.5175199E-05   10895.12       3.796662    
  3.5175199E-05  3.6065601E-05   9974.104       4.366444    
  3.6065601E-05  4.0867701E-05   12621.13       1.505132    
  4.0867701E-05  4.6309200E-05   13486.95       1.332368    
  4.6309200E-05  5.2475199E-05   12570.72       1.265594    
  5.2475199E-05  5.6562199E-05   11268.11       1.997360    
  5.6562199E-05  5.9462200E-05   10692.13       1.692615    
  5.9462200E-05  6.2510902E-05   10205.73       2.381692    
  6.2510902E-05  6.7379500E-05   9446.947       1.764485    
  6.7379500E-05  7.6350902E-05   9308.892       1.030693    
  7.6350902E-05  8.6516899E-05   6775.405       1.225485    
  8.6516899E-05  9.8036500E-05   3957.020       2.194826    
  9.8036500E-05  1.1109000E-04   4697.055       2.239570    
  1.1109000E-04  1.1678600E-04   4804.187       3.208482    
  1.1678600E-04  1.2277300E-04   3198.146       2.337217    
  1.2277300E-04  1.2906799E-04   4634.097       1.592708    
  1.2906799E-04  1.3568600E-04   4658.679       2.306939    
  1.3568600E-04  1.4264201E-04   3349.508       3.636050    
  1.4264201E-04  1.4995600E-04   2617.898       2.756392    
  1.4995600E-04  1.5764400E-04   2335.006       2.655380    
  1.5764400E-04  1.6163501E-04   1825.274       5.042378    
  1.6163501E-04  1.6572700E-04   2235.854       3.715523    
  1.6572700E-04  1.6992200E-04   2409.328       4.242426    
  1.6992200E-04  1.7422400E-04   2501.431       2.177162    
  1.7422400E-04  1.8315599E-04   2364.556       2.512136    
  1.8315599E-04  1.9254700E-04   2480.032       2.247059    
  1.9254700E-04  2.0241900E-04   2113.757       3.069484    
  2.0241900E-04  2.1279699E-04   1715.002       2.831403    
  2.1279699E-04  2.2370800E-04   1720.486       3.741476    
  2.2370800E-04  2.3517800E-04   1710.569       3.198999    
  2.3517800E-04  2.4723500E-04   1704.754       2.057645    
  2.4723500E-04  2.5991100E-04   1641.945       1.963596    
  2.5991100E-04  2.7323700E-04   1752.529       3.270537    
  2.7323700E-04  2.8015400E-04   1540.226       3.899294    
  2.8015400E-04  2.8724599E-04   1179.047       3.544097    
  2.8724599E-04  2.9451799E-04   1143.650       4.457899    
  2.9451799E-04  3.0197401E-04   1135.478       4.639673    
  3.0197401E-04  3.0961799E-04   1249.773       3.904355    
  3.0961799E-04  3.1745600E-04   1102.584       3.137747    
  3.1745600E-04  3.3373301E-04   1096.324       3.658637    
  3.3373301E-04  3.5084400E-04   1120.132       3.591077    
  3.5084400E-04  3.6883200E-04   899.5452       3.571635    
  3.6883200E-04  3.8774201E-04   880.1495       2.328085    
  3.8774201E-04  4.0762199E-04   889.1502       3.712517    
  4.0762199E-04  4.2852099E-04   697.0759       3.137665    
  4.2852099E-04  4.5049199E-04   663.8425       2.872969    
  4.5049199E-04  4.7358900E-04   623.9766       2.623495    
  4.7358900E-04  4.9787102E-04   600.7665       3.191638    
  4.9787102E-04  5.1047403E-04   640.1848       4.324046    
  5.1047403E-04  5.2339700E-04   575.6779       4.007133    
  5.2339700E-04  5.3664698E-04   481.3792       4.785637    
  5.3664698E-04  5.5023201E-04   538.1000       4.982280    
  5.5023201E-04  5.7844300E-04   430.8874       2.716202    
  5.7844300E-04  6.0810102E-04   423.9509       2.365584    
  6.0810102E-04  6.3927902E-04   412.3605       4.216918    
  6.3927902E-04  6.7205500E-04   335.4177       3.546485    
  6.7205500E-04  7.0651202E-04   348.5854       3.752194    
  7.0651202E-04  7.4273598E-04   314.0279       2.400424    
  7.4273598E-04  7.8081700E-04   269.3778       3.837937    
  7.8081700E-04  8.2085002E-04   197.4739       4.161400    
  8.2085002E-04  8.6293602E-04   192.4652       3.751121    
  8.6293602E-04  9.0717903E-04   181.1917       4.373070    
  9.0717903E-04  9.5369201E-04   165.5833       2.556487    
  9.5369201E-04  9.6163998E-04   144.8379       10.18617    
  9.6163998E-04  9.7783399E-04   144.9421       6.257543    
  9.7783399E-04  1.0025901E-03   133.6665       4.396392    
  1.0025901E-03  1.0539900E-03   129.3907       5.121644    
  1.0539900E-03  1.1080300E-03   128.3899       3.066286    
  1.1080300E-03  1.1648400E-03   107.4865       2.939634    
  1.1648400E-03  1.1943300E-03   103.2057       4.245073    
  1.1943300E-03  1.2245600E-03   94.41361       5.602892    
  1.2245600E-03  1.2873500E-03   98.27628       4.726195    
  1.2873500E-03  1.3533500E-03   97.33706       3.089507    
  1.3533500E-03  1.4227401E-03   89.45065       5.861440    
  1.4227401E-03  1.4956900E-03   88.41527       4.202686    
  1.4956900E-03  1.5335500E-03   90.52051       6.411355    
  1.5335500E-03  1.5723699E-03   70.20999       5.871651    
  1.5723699E-03  1.6121800E-03   84.19266       6.464770    
  1.6121800E-03  1.6529900E-03   82.15911       9.544491    
  1.6529900E-03  1.7377400E-03   75.99699       4.857970    
  1.7377400E-03  1.8268300E-03   68.36123       4.657314    
  1.8268300E-03  1.8730800E-03   70.82468       5.440606    
  1.8730800E-03  1.9205000E-03   64.93862       5.769829    
  1.9205000E-03  1.9691200E-03   53.94247       8.516744    
  1.9691200E-03  2.0189700E-03   58.18477       6.670324    
  2.0189700E-03  2.1224800E-03   52.92993       5.264494    
  2.1224800E-03  2.2313001E-03   52.29244       5.069579    
  2.2313001E-03  2.2688799E-03   47.74941       8.644575    
  2.2688799E-03  2.3068599E-03   46.93486       8.981578    
  2.3068599E-03  2.3457000E-03   45.35970       6.828138    
  2.3457000E-03  2.3652499E-03   42.82709       12.19083    
  2.3652499E-03  2.3852000E-03   44.85085       9.970673    
  2.3852000E-03  2.4251300E-03   47.21764       11.53741    
  2.4251300E-03  2.4659701E-03   50.23458       8.060154    
  2.4659701E-03  2.5923999E-03   35.35770       5.701493    
  2.5923999E-03  2.7253199E-03   35.09848       4.277133    
  2.7253199E-03  2.8650500E-03   32.44148       6.256458    
  2.8650500E-03  3.0119400E-03   26.03094       7.156160    
  3.0119400E-03  3.0881900E-03   25.98713       6.181086    
  3.0881900E-03  3.1663701E-03   25.97533       6.614735    
  3.1663701E-03  3.2465300E-03   22.94764       8.092319    
  3.2465300E-03  3.3287101E-03   23.29100       7.568245    
  3.3287101E-03  3.4993801E-03   18.69523       5.941413    
  3.4993801E-03  3.6787901E-03   17.41514       5.653281    
  3.6787901E-03  3.8674099E-03   18.94885       7.238878    
  3.8674099E-03  4.0656999E-03   17.68161       5.934881    
  4.0656999E-03  4.2741499E-03   15.46562       4.773631    
  4.2741499E-03  4.4932901E-03   14.87967       5.216087    
  4.4932901E-03  4.6070400E-03   12.64840       7.989760    
  4.6070400E-03  4.7236700E-03   12.98162       9.836455    
  4.7236700E-03  4.8432499E-03   10.44835       8.300136    
  4.8432499E-03  4.9658502E-03   10.65063       9.894258    
  4.9658502E-03  5.2204598E-03   11.44907       6.703221    
  5.2204598E-03  5.4881200E-03   11.07135       5.876879    
  5.4881200E-03  5.7695000E-03   11.43222       6.782469    
  5.7695000E-03  5.9155500E-03   8.564306       9.144868    
  5.9155500E-03  6.0653100E-03   9.909699       9.145792    
  6.0653100E-03  6.2188501E-03   9.216726       8.991502    
  6.2188501E-03  6.3762800E-03   8.983038       8.049739    
  6.3762800E-03  6.5377001E-03   8.173782       9.065499    
  6.5377001E-03  6.5923799E-03   10.71450       13.96133    
  6.5923799E-03  6.6475999E-03   8.311727       17.49605    
  6.6475999E-03  6.7031998E-03   9.080530       10.31453    
  6.7031998E-03  6.8728901E-03   7.496664       10.60621    
  6.8728901E-03  7.0468802E-03   6.190961       11.09721    
  7.0468802E-03  7.2252699E-03   8.464312       10.69235    
  7.2252699E-03  7.4081798E-03   9.698553       6.560407    
  7.4081798E-03  7.5957198E-03   6.313723       13.91687    
  7.5957198E-03  7.7880099E-03   6.534264       9.431291    
  7.7880099E-03  7.9851598E-03   6.414063       7.427613    
  7.9851598E-03  8.1873098E-03   6.648557       10.45601    
  8.1873098E-03  8.3945701E-03   5.156188       9.295529    
  8.3945701E-03  8.6070802E-03   4.737531       11.08526    
  8.6070802E-03  8.8249696E-03   6.145901       7.763893    
  8.8249696E-03  9.0483697E-03   4.280881       10.86518    
  9.0483697E-03  9.2774397E-03   5.235803       17.45686    
  9.2774397E-03  9.5122904E-03   4.953061       11.66619    
  9.5122904E-03  9.7530996E-03   4.749508       9.712441    
  9.7530996E-03  9.9999998E-03   4.843011       9.481239    
  9.9999998E-03  1.0253200E-02   4.162296       14.31283    
  1.0253200E-02  1.0512700E-02   3.943795       11.07309    
  1.0512700E-02  1.0778800E-02   4.047576       8.176023    
  1.0778800E-02  1.1051700E-02   4.173129       9.025491    
  1.1051700E-02  1.1331500E-02   3.715363       11.56599    
  1.1331500E-02  1.1618300E-02   3.892437       10.41149    
  1.1618300E-02  1.1912500E-02   2.862626       11.99206    
  1.1912500E-02  1.2214000E-02   3.499391       11.77464    
  1.2214000E-02  1.2523200E-02   3.004180       7.413953    
  1.2523200E-02  1.2840200E-02   3.297284       9.937925    
  1.2840200E-02  1.3165300E-02   3.570863       11.55591    
  1.3165300E-02  1.3498600E-02   2.758829       11.99659    
  1.3498600E-02  1.3840300E-02   3.107594       11.70525    
  1.3840300E-02  1.4190700E-02   2.245698       16.64258    
  1.4190700E-02  1.4549900E-02   2.509480       10.14892    
  1.4549900E-02  1.4918300E-02   2.659105       10.35090    
  1.4918300E-02  1.5295900E-02   2.882971       10.86751    
  1.5295900E-02  1.5683100E-02   2.555026       10.37737    
  1.5683100E-02  1.6080100E-02   1.977477       12.14133    
  1.6080100E-02  1.6487200E-02   2.314884       16.51146    
  1.6487200E-02  1.6904600E-02   2.633062       7.917915    
  1.6904600E-02  1.7332500E-02   1.909148       13.01209    
  1.7332500E-02  1.7771300E-02   1.764389       15.83092    
  1.7771300E-02  1.8221200E-02   2.344651       11.17942    
  1.8221200E-02  1.8682500E-02   1.649528       14.60535    
  1.8682500E-02  1.9155400E-02   1.892798       12.86300    
  1.9155400E-02  1.9640300E-02   1.462822       10.43805    
  1.9640300E-02  2.0000000E-02   1.876652       17.36042    
