 # Detector n:            1   HeIInflux 
 # N. of energy intervals         277
  1.0000100E-14  2.0000000E-13  2.4682791E+10   4.246043    
  2.0000000E-13  2.9297300E-13  6.0216615E+10   3.972540    
  2.9297300E-13  4.2916701E-13  8.2020139E+10   2.724706    
  4.2916701E-13  6.2867300E-13  1.1435635E+11   1.862418    
  6.2867300E-13  9.2092198E-13  1.5896053E+11   1.360370    
  9.2092198E-13  1.3490300E-12  2.1583662E+11   1.026623    
  1.3490300E-12  1.9761499E-12  2.8008150E+11  0.7679193    
  1.9761499E-12  2.8947901E-12  3.6434785E+11  0.5292491    
  2.8947901E-12  4.2404799E-12  4.4400443E+11  0.3878442    
  4.2404799E-12  6.2117499E-12  4.9460462E+11  0.3283874    
  6.2117499E-12  9.0993801E-12  5.1582298E+11  0.3131800    
  9.0993801E-12  1.3329400E-11  4.8061320E+11  0.2589564    
  1.3329400E-11  1.9525799E-11  3.9583911E+11  0.2463377    
  1.9525799E-11  2.8602700E-11  2.7828830E+11  0.2661099    
  2.8602700E-11  4.1899099E-11  1.6625379E+11  0.2434477    
  4.1899099E-11  6.1376598E-11  8.5695250E+10  0.3062065    
  6.1376598E-11  8.9908601E-11  3.7540717E+10  0.3524938    
  8.9908601E-11  1.3170399E-10  1.3166453E+10  0.4540428    
  1.3170399E-10  1.9292901E-10  4.3063055E+09  0.6546865    
  1.9292901E-10  2.8261499E-10  1.7687071E+09  0.8453579    
  2.8261499E-10  4.1399401E-10  9.1679904E+08  0.9282911    
  4.1399401E-10  5.3157900E-10  6.1142458E+08   1.220114    
  5.3157900E-10  6.2506200E-10  4.7599440E+08   1.440317    
  6.2506200E-10  6.8256001E-10  4.0979120E+08   1.820796    
  6.8256001E-10  8.3368101E-10  3.4681459E+08   1.361445    
  8.3368101E-10  8.7642499E-10  3.1423386E+08   2.556727    
  8.7642499E-10  1.1253500E-09  2.5805419E+08   1.309767    
  1.1253500E-09  1.4449800E-09  1.9559790E+08   1.282170    
  1.4449800E-09  1.8553900E-09  1.4861736E+08   1.217426    
  1.8553900E-09  2.3823701E-09  1.1469578E+08   1.274496    
  2.3823701E-09  3.0590199E-09  8.8577536E+07   1.322179    
  3.0590199E-09  3.9278598E-09  6.6853972E+07   1.438551    
  3.9278598E-09  5.0434799E-09  5.0677384E+07   1.414438    
  5.0434799E-09  6.4759500E-09  3.8896044E+07   1.472527    
  6.4759500E-09  8.3152898E-09  2.9469292E+07   1.372904    
  8.3152898E-09  1.0677000E-08  2.3129084E+07   1.444584    
  1.0677000E-08  1.3709600E-08  1.7664500E+07   1.444781    
  1.3709600E-08  1.7603501E-08  1.3308061E+07   1.390690    
  1.7603501E-08  2.2603301E-08  1.0393447E+07   1.560205    
  2.2603301E-08  2.9023200E-08   7789568.       1.413852    
  2.9023200E-08  3.7266499E-08   6141762.       1.504773    
  3.7266499E-08  4.7851199E-08   4610618.       1.446156    
  4.7851199E-08  6.1442101E-08   3501007.       1.503140    
  6.1442101E-08  7.8893301E-08   2708912.       1.518843    
  7.8893301E-08  1.0130100E-07   2033086.       1.428853    
  1.0130100E-07  1.3007300E-07   1544895.       1.592556    
  1.3007300E-07  1.6701701E-07   1178288.       1.621982    
  1.6701701E-07  2.1445400E-07   893851.2       1.674029    
  2.1445400E-07  2.7536399E-07   695481.1       1.625167    
  2.7536399E-07  3.5357499E-07   533388.1       1.555344    
  3.5357499E-07  4.5399901E-07   397315.7       1.666632    
  4.5399901E-07  5.8294700E-07   294467.1       1.683012    
  5.8294700E-07  7.4851800E-07   223321.8       1.652812    
  7.4851800E-07  9.6111603E-07   157118.4       2.147342    
  9.6111603E-07  1.2341000E-06   128622.6       1.729619    
  1.2341000E-06  1.3638900E-06   104792.9       2.319988    
  1.3638900E-06  1.5073300E-06   95457.11       2.470470    
  1.5073300E-06  1.5846100E-06   88101.65       3.152010    
  1.5846100E-06  1.6658601E-06   82935.55       3.529606    
  1.6658601E-06  1.8410600E-06   76700.49       2.494228    
  1.8410600E-06  2.0346799E-06   71869.03       2.583859    
  2.0346799E-06  2.2486699E-06   68112.13       2.334638    
  2.2486699E-06  2.4851699E-06   51349.37       2.975223    
  2.4851699E-06  2.6125899E-06   46411.20       3.423140    
  2.6125899E-06  2.7465401E-06   46390.39       3.618659    
  2.7465401E-06  2.8634900E-06   44928.38       3.760077    
  2.8634900E-06  3.0353899E-06   41306.11       3.204611    
  3.0353899E-06  3.3546301E-06   39006.49       2.633870    
  3.3546301E-06  3.7074401E-06   36197.14       2.716442    
  3.7074401E-06  4.0973500E-06   31378.12       2.558728    
  4.0973500E-06  4.3074201E-06   28790.64       3.570313    
  4.3074201E-06  4.5282700E-06   25391.77       3.447384    
  4.5282700E-06  5.0045101E-06   25073.43       2.598422    
  5.0045101E-06  5.5308401E-06   28095.74       2.512959    
  5.5308401E-06  6.2672698E-06   16437.19       2.597852    
  6.2672698E-06  7.1017398E-06   16792.20       2.632744    
  7.1017398E-06  8.0473301E-06   15377.18       2.417594    
  8.0473301E-06  9.1188203E-06   12622.86       2.481306    
  9.1188203E-06  1.0333000E-05   11402.03       2.139174    
  1.0333000E-05  1.1708800E-05   10904.54       2.251481    
  1.1708800E-05  1.3267800E-05   9511.091       2.743694    
  1.3267800E-05  1.5034400E-05   7066.929       2.642655    
  1.5034400E-05  1.7036200E-05   7707.401       2.738205    
  1.7036200E-05  1.9304500E-05   5310.786       2.393855    
  1.9304500E-05  2.1334799E-05   5132.780       2.950699    
  2.1334799E-05  2.1874899E-05   5119.837       4.667825    
  2.1874899E-05  2.3578599E-05   4876.209       3.198227    
  2.3578599E-05  2.4175501E-05   4177.964       4.330514    
  2.4175501E-05  2.4787500E-05   4523.515       4.325574    
  2.4787500E-05  2.6058400E-05   4327.052       3.532945    
  2.6058400E-05  2.8087899E-05   4989.863       2.843007    
  2.8087899E-05  3.1827800E-05   4874.390       2.003666    
  3.1827800E-05  3.4306700E-05   2921.589       2.750272    
  3.4306700E-05  3.5175199E-05   1458.949       6.457048    
  3.5175199E-05  3.6065601E-05   1268.121       6.476021    
  3.6065601E-05  4.0867701E-05   1776.231       2.716184    
  4.0867701E-05  4.6309200E-05   2208.167       2.629587    
  4.6309200E-05  5.2475199E-05   2076.098       2.636271    
  5.2475199E-05  5.6562199E-05   1964.796       3.230940    
  5.6562199E-05  5.9462200E-05   1846.999       3.267712    
  5.9462200E-05  6.2510902E-05   1820.141       3.281374    
  6.2510902E-05  6.7379500E-05   1853.267       2.888924    
  6.7379500E-05  7.6350902E-05   2042.314       1.910942    
  7.6350902E-05  8.6516899E-05   1476.307       2.163833    
  8.6516899E-05  9.8036500E-05   847.6493       2.506039    
  9.8036500E-05  1.1109000E-04   1125.913       2.123445    
  1.1109000E-04  1.1678600E-04   1176.911       2.857654    
  1.1678600E-04  1.2277300E-04   966.9257       2.904313    
  1.2277300E-04  1.2906799E-04   1331.076       2.663589    
  1.2906799E-04  1.3568600E-04   1348.161       2.303019    
  1.3568600E-04  1.4264201E-04   973.2572       3.011163    
  1.4264201E-04  1.4995600E-04   856.9786       2.870699    
  1.4995600E-04  1.5764400E-04   697.4227       3.071443    
  1.5764400E-04  1.6163501E-04   658.2221       3.866006    
  1.6163501E-04  1.6572700E-04   767.4537       4.325497    
  1.6572700E-04  1.6992200E-04   793.1167       4.043166    
  1.6992200E-04  1.7422400E-04   843.6494       4.078530    
  1.7422400E-04  1.8315599E-04   875.7698       2.909328    
  1.8315599E-04  1.9254700E-04   935.3452       2.492592    
  1.9254700E-04  2.0241900E-04   778.8843       2.727830    
  2.0241900E-04  2.1279699E-04   633.0607       2.789262    
  2.1279699E-04  2.2370800E-04   661.3685       2.657603    
  2.2370800E-04  2.3517800E-04   663.6808       2.555018    
  2.3517800E-04  2.4723500E-04   676.0303       2.641706    
  2.4723500E-04  2.5991100E-04   631.9784       2.400559    
  2.5991100E-04  2.7323700E-04   758.0193       2.295670    
  2.7323700E-04  2.8015400E-04   647.5482       3.286675    
  2.8015400E-04  2.8724599E-04   548.6044       3.719353    
  2.8724599E-04  2.9451799E-04   540.1938       3.461679    
  2.9451799E-04  3.0197401E-04   595.0396       3.338226    
  3.0197401E-04  3.0961799E-04   541.6011       3.142982    
  3.0961799E-04  3.1745600E-04   539.5806       3.458467    
  3.1745600E-04  3.3373301E-04   568.4158       2.482019    
  3.3373301E-04  3.5084400E-04   569.5934       2.182820    
  3.5084400E-04  3.6883200E-04   486.7617       2.502523    
  3.6883200E-04  3.8774201E-04   484.2452       2.509181    
  3.8774201E-04  4.0762199E-04   488.9663       2.143255    
  4.0762199E-04  4.2852099E-04   406.4790       2.239712    
  4.2852099E-04  4.5049199E-04   375.2309       2.438807    
  4.5049199E-04  4.7358900E-04   372.1029       2.662032    
  4.7358900E-04  4.9787102E-04   343.0408       2.486992    
  4.9787102E-04  5.1047403E-04   320.2387       2.984289    
  5.1047403E-04  5.2339700E-04   325.7425       3.145713    
  5.2339700E-04  5.3664698E-04   293.5455       3.442476    
  5.3664698E-04  5.5023201E-04   263.7109       3.523122    
  5.5023201E-04  5.7844300E-04   270.3412       2.491068    
  5.7844300E-04  6.0810102E-04   251.0670       2.519175    
  6.0810102E-04  6.3927902E-04   234.1225       2.686357    
  6.3927902E-04  6.7205500E-04   201.2268       2.472316    
  6.7205500E-04  7.0651202E-04   197.7533       2.450031    
  7.0651202E-04  7.4273598E-04   173.6438       2.387923    
  7.4273598E-04  7.8081700E-04   159.6055       2.557679    
  7.8081700E-04  8.2085002E-04   133.8559       2.493539    
  8.2085002E-04  8.6293602E-04   121.4026       2.458650    
  8.6293602E-04  9.0717903E-04   108.0673       2.267026    
  9.0717903E-04  9.5369201E-04   102.0435       2.566821    
  9.5369201E-04  9.6163998E-04   94.62758       5.563015    
  9.6163998E-04  9.7783399E-04   92.88806       3.757474    
  9.7783399E-04  1.0025901E-03   87.57737       3.342885    
  1.0025901E-03  1.0539900E-03   79.92861       2.302965    
  1.0539900E-03  1.1080300E-03   77.29829       2.439850    
  1.1080300E-03  1.1648400E-03   72.59496       2.764040    
  1.1648400E-03  1.1943300E-03   72.88436       3.408463    
  1.1943300E-03  1.2245600E-03   67.00584       3.327763    
  1.2245600E-03  1.2873500E-03   67.07086       2.257878    
  1.2873500E-03  1.3533500E-03   67.66013       2.436379    
  1.3533500E-03  1.4227401E-03   64.49194       2.514444    
  1.4227401E-03  1.4956900E-03   65.08463       2.547787    
  1.4956900E-03  1.5335500E-03   61.53708       3.454831    
  1.5335500E-03  1.5723699E-03   61.80400       3.265176    
  1.5723699E-03  1.6121800E-03   59.14574       3.695518    
  1.6121800E-03  1.6529900E-03   58.66006       3.433605    
  1.6529900E-03  1.7377400E-03   56.68141       2.486245    
  1.7377400E-03  1.8268300E-03   52.56871       2.469166    
  1.8268300E-03  1.8730800E-03   51.85786       3.881060    
  1.8730800E-03  1.9205000E-03   49.28006       3.568835    
  1.9205000E-03  1.9691200E-03   46.61652       3.788486    
  1.9691200E-03  2.0189700E-03   45.92435       3.550518    
  2.0189700E-03  2.1224800E-03   42.44238       2.732522    
  2.1224800E-03  2.2313001E-03   39.06097       3.000173    
  2.2313001E-03  2.2688799E-03   37.75616       5.136391    
  2.2688799E-03  2.3068599E-03   37.05931       4.849023    
  2.3068599E-03  2.3457000E-03   37.74583       5.164808    
  2.3457000E-03  2.3652499E-03   33.18681       7.070812    
  2.3652499E-03  2.3852000E-03   36.12794       6.498345    
  2.3852000E-03  2.4251300E-03   37.79860       5.033983    
  2.4251300E-03  2.4659701E-03   34.12091       5.157275    
  2.4659701E-03  2.5923999E-03   28.92895       3.282152    
  2.5923999E-03  2.7253199E-03   27.73043       3.106841    
  2.7253199E-03  2.8650500E-03   23.68193       3.153849    
  2.8650500E-03  3.0119400E-03   22.25621       3.411220    
  3.0119400E-03  3.0881900E-03   19.34281       4.961999    
  3.0881900E-03  3.1663701E-03   18.29457       5.357953    
  3.1663701E-03  3.2465300E-03   18.76274       5.205203    
  3.2465300E-03  3.3287101E-03   17.71537       5.843675    
  3.3287101E-03  3.4993801E-03   15.03447       3.799104    
  3.4993801E-03  3.6787901E-03   13.63598       4.163223    
  3.6787901E-03  3.8674099E-03   12.86005       4.225713    
  3.8674099E-03  4.0656999E-03   11.84791       4.613621    
  4.0656999E-03  4.2741499E-03   11.08664       4.616171    
  4.2741499E-03  4.4932901E-03   10.12887       4.446807    
  4.4932901E-03  4.6070400E-03   8.717206       6.337969    
  4.6070400E-03  4.7236700E-03   9.619106       6.385922    
  4.7236700E-03  4.8432499E-03   9.289583       7.033180    
  4.8432499E-03  4.9658502E-03   8.849895       6.587595    
  4.9658502E-03  5.2204598E-03   7.362883       4.767447    
  5.2204598E-03  5.4881200E-03   6.626318       5.499192    
  5.4881200E-03  5.7695000E-03   6.441828       5.643143    
  5.7695000E-03  5.9155500E-03   6.154514       8.619457    
  5.9155500E-03  6.0653100E-03   5.485651       7.273463    
  6.0653100E-03  6.2188501E-03   5.890187       8.600989    
  6.2188501E-03  6.3762800E-03   4.311454       7.667823    
  6.3762800E-03  6.5377001E-03   5.459006       7.952733    
  6.5377001E-03  6.5923799E-03   5.700531       10.72195    
  6.5923799E-03  6.6475999E-03   5.896811       11.99835    
  6.6475999E-03  6.7031998E-03   3.928873       12.96222    
  6.7031998E-03  6.8728901E-03   4.850874       7.409763    
  6.8728901E-03  7.0468802E-03   4.668301       7.422227    
  7.0468802E-03  7.2252699E-03   4.077739       8.809715    
  7.2252699E-03  7.4081798E-03   3.681303       8.536162    
  7.4081798E-03  7.5957198E-03   2.935117       9.134110    
  7.5957198E-03  7.7880099E-03   3.819833       9.332887    
  7.7880099E-03  7.9851598E-03   3.822315       8.425779    
  7.9851598E-03  8.1873098E-03   3.579086       8.681231    
  8.1873098E-03  8.3945701E-03   3.387056       8.176513    
  8.3945701E-03  8.6070802E-03   3.816256       7.545893    
  8.6070802E-03  8.8249696E-03   2.894819       9.561923    
  8.8249696E-03  9.0483697E-03   2.838833       8.560094    
  9.0483697E-03  9.2774397E-03   3.098282       9.086929    
  9.2774397E-03  9.5122904E-03   3.098648       8.165510    
  9.5122904E-03  9.7530996E-03   2.555737       9.401633    
  9.7530996E-03  9.9999998E-03   2.518475       8.114874    
  9.9999998E-03  1.0253200E-02   2.655168       9.313989    
  1.0253200E-02  1.0512700E-02   2.430663       8.440368    
  1.0512700E-02  1.0778800E-02   2.351865       9.507407    
  1.0778800E-02  1.1051700E-02   2.459123       9.664433    
  1.1051700E-02  1.1331500E-02   2.507915       9.051481    
  1.1331500E-02  1.1618300E-02   2.118738       8.956215    
  1.1618300E-02  1.1912500E-02   2.035099       9.869048    
  1.1912500E-02  1.2214000E-02   2.024014       8.795912    
  1.2214000E-02  1.2523200E-02   2.349852       9.345910    
  1.2523200E-02  1.2840200E-02   1.821118       10.79627    
  1.2840200E-02  1.3165300E-02   1.634571       8.927800    
  1.3165300E-02  1.3498600E-02   1.769792       9.447875    
  1.3498600E-02  1.3840300E-02   2.061342       8.979313    
  1.3840300E-02  1.4190700E-02   1.611655       10.52855    
  1.4190700E-02  1.4549900E-02   2.050335       9.590615    
  1.4549900E-02  1.4918300E-02   1.655591       9.350509    
  1.4918300E-02  1.5295900E-02   1.691315       9.664334    
  1.5295900E-02  1.5683100E-02   1.872609       9.531910    
  1.5683100E-02  1.6080100E-02   1.536038       9.658953    
  1.6080100E-02  1.6487200E-02   1.706842       10.79292    
  1.6487200E-02  1.6904600E-02   1.478710       9.549629    
  1.6904600E-02  1.7332500E-02   1.560137       8.773756    
  1.7332500E-02  1.7771300E-02   1.382777       9.312612    
  1.7771300E-02  1.8221200E-02   1.374981       9.865973    
  1.8221200E-02  1.8682500E-02   1.203369       9.570992    
  1.8682500E-02  1.9155400E-02   1.150608       9.628653    
  1.9155400E-02  1.9640300E-02   1.363063       9.180779    
  1.9640300E-02  2.0000000E-02   1.456831       11.95425    
  2.0000000E-02  2.5174996E-02   1.314987       3.172935    
  2.5174996E-02  3.1689022E-02   1.034984       3.155635    
  3.1689022E-02  3.9888553E-02  0.9416572       3.430535    
  3.9888553E-02  5.0209712E-02  0.8169890       3.121828    
  5.0209712E-02  6.3201472E-02  0.7545080       2.811196    
  6.3201472E-02  7.9554841E-02  0.6027697       2.773965    
  7.9554841E-02  0.1001396      0.4769686       3.309308    
  0.1001396      0.1260508      0.3677272       3.698479    
  0.1260508      0.1586664      0.2460302       3.597406    
  0.1586664      0.1997213      0.1545069       4.228110    
  0.1997213      0.2513991      8.3302766E-02   5.720998    
  0.2513991      0.3164486      2.6202248E-02   8.047381    
  0.3164486      0.3983297      3.5018176E-03   21.21527    
  0.3983297      0.5013974      9.9885110E-05   99.00000    
  0.5013974      0.6311339       0.000000       0.000000    
  0.6311339      0.7944397       0.000000       0.000000    
  0.7944397       1.000001       0.000000       0.000000    
