 # Detector n:  1  HeIInflux 
 # N. of energy intervals 260
  1.0000100E-14  2.0000000E-13  1.8239683E+10   34.72868    
  2.0000000E-13  2.9297300E-13  2.4180869E+10   30.48161    
  2.9297300E-13  4.2916701E-13  3.0512259E+10   19.67618    
  4.2916701E-13  6.2867300E-13  6.8294390E+10   10.39310    
  6.2867300E-13  9.2092198E-13  7.4897842E+10   5.604792    
  9.2092198E-13  1.3490300E-12  9.8746450E+10   5.499884    
  1.3490300E-12  1.9761499E-12  1.4978141E+11   6.300867    
  1.9761499E-12  2.8947901E-12  1.7711774E+11   4.269886    
  2.8947901E-12  4.2404799E-12  2.3063311E+11   2.772505    
  4.2404799E-12  6.2117499E-12  2.7031049E+11   1.904127    
  6.2117499E-12  9.0993801E-12  2.8121219E+11   1.146301    
  9.0993801E-12  1.3329400E-11  2.5303025E+11   1.675030    
  1.3329400E-11  1.9525799E-11  1.9598801E+11   1.953559    
  1.9525799E-11  2.8602700E-11  1.1996701E+11   1.496882    
  2.8602700E-11  4.1899099E-11  5.6471704E+10   1.046988    
  4.1899099E-11  6.1376598E-11  2.4340525E+10   2.426643    
  6.1376598E-11  8.9908601E-11  1.1245703E+10   1.969340    
  8.9908601E-11  1.3170399E-10  6.0397455E+09   1.629560    
  1.3170399E-10  1.9292901E-10  3.4876370E+09   1.639422    
  1.9292901E-10  2.8261499E-10  2.2429952E+09   1.237424    
  2.8261499E-10  4.1399401E-10  1.5056900E+09  0.7651706    
  4.1399401E-10  5.3157900E-10  1.0928914E+09  0.9654683    
  5.3157900E-10  6.2506200E-10  8.8721606E+08   1.744881    
  6.2506200E-10  6.8256001E-10  8.1170835E+08   2.024244    
  6.8256001E-10  8.3368101E-10  6.7812870E+08   1.263965    
  8.3368101E-10  8.7642499E-10  5.9967533E+08   2.198863    
  8.7642499E-10  1.1253500E-09  5.2641283E+08   1.218967    
  1.1253500E-09  1.4449800E-09  4.1190784E+08   1.065022    
  1.4449800E-09  1.8553900E-09  3.2312064E+08  0.9348215    
  1.8553900E-09  2.3823701E-09  2.4524547E+08   1.231581    
  2.3823701E-09  3.0590199E-09  1.9907853E+08  0.8888775    
  3.0590199E-09  3.9278598E-09  1.5104403E+08  0.7934612    
  3.9278598E-09  5.0434799E-09  1.1852558E+08   1.332333    
  5.0434799E-09  6.4759500E-09  9.1685816E+07  0.4804709    
  6.4759500E-09  8.3152898E-09  7.4074376E+07  0.7121139    
  8.3152898E-09  1.0677000E-08  5.6731640E+07   1.002914    
  1.0677000E-08  1.3709600E-08  4.4789692E+07   1.513490    
  1.3709600E-08  1.7603501E-08  3.5025492E+07  0.8331350    
  1.7603501E-08  2.2603301E-08  2.7790416E+07   1.202100    
  2.2603301E-08  2.9023200E-08  2.1617900E+07   1.311685    
  2.9023200E-08  3.7266499E-08  1.6900546E+07  0.7861919    
  3.7266499E-08  4.7851199E-08  1.3042060E+07  0.9645895    
  4.7851199E-08  6.1442101E-08  1.0463274E+07  0.9454579    
  6.1442101E-08  7.8893301E-08   7909880.      0.9759590    
  7.8893301E-08  1.0130100E-07   6321335.      0.8005044    
  1.0130100E-07  1.3007300E-07   4917266.       1.212391    
  1.3007300E-07  1.6701701E-07   3770588.       1.371365    
  1.6701701E-07  2.1445400E-07   3022763.       1.215980    
  2.1445400E-07  2.7536399E-07   2336212.       1.054563    
  2.7536399E-07  3.5357499E-07   1786754.      0.8428638    
  3.5357499E-07  4.5399901E-07   1403566.       1.122651    
  4.5399901E-07  5.8294700E-07   1102761.       1.076371    
  5.8294700E-07  7.4851800E-07   831310.6       1.007594    
  7.4851800E-07  9.6111603E-07   657053.2       1.150641    
  9.6111603E-07  1.2341000E-06   507478.8       1.176805    
  1.2341000E-06  1.3638900E-06   408215.1       1.694703    
  1.3638900E-06  1.5073300E-06   378765.2       1.234148    
  1.5073300E-06  1.5846100E-06   343989.2       1.806639    
  1.5846100E-06  1.6658601E-06   338499.6       2.796677    
  1.6658601E-06  1.8410600E-06   312854.1       1.572031    
  1.8410600E-06  2.0346799E-06   272602.4       1.026706    
  2.0346799E-06  2.2486699E-06   258804.0       1.499012    
  2.2486699E-06  2.4851699E-06   224398.5       1.341498    
  2.4851699E-06  2.6125899E-06   206954.9       2.683905    
  2.6125899E-06  2.7465401E-06   194255.2       2.554695    
  2.7465401E-06  2.8634900E-06   189261.7       2.784713    
  2.8634900E-06  3.0353899E-06   178185.8       2.520579    
  3.0353899E-06  3.3546301E-06   167966.1       1.979440    
  3.3546301E-06  3.7074401E-06   146437.2       1.336988    
  3.7074401E-06  4.0973500E-06   132119.4       1.383547    
  4.0973500E-06  4.3074201E-06   128061.2       1.616400    
  4.3074201E-06  4.5282700E-06   113548.6       1.925728    
  4.5282700E-06  5.0045101E-06   109574.8       2.276946    
  5.0045101E-06  5.5308401E-06   106672.2       1.126059    
  5.5308401E-06  6.2672698E-06   72869.08       1.381666    
  6.2672698E-06  7.1017398E-06   74783.05       1.506003    
  7.1017398E-06  8.0473301E-06   66429.74       1.072765    
  8.0473301E-06  9.1188203E-06   57152.27       1.670931    
  9.1188203E-06  1.0333000E-05   49618.09       1.261888    
  1.0333000E-05  1.1708800E-05   43620.62       2.140937    
  1.1708800E-05  1.3267800E-05   38033.71       1.837282    
  1.3267800E-05  1.5034400E-05   31222.89       1.559128    
  1.5034400E-05  1.7036200E-05   28250.75       1.333591    
  1.7036200E-05  1.9304500E-05   25033.83       1.514250    
  1.9304500E-05  2.1334799E-05   22074.87       1.744864    
  2.1334799E-05  2.1874899E-05   20485.75       2.825287    
  2.1874899E-05  2.3578599E-05   19703.12       2.506397    
  2.3578599E-05  2.4175501E-05   17380.97       2.596811    
  2.4175501E-05  2.4787500E-05   16698.41       4.456324    
  2.4787500E-05  2.6058400E-05   17315.49       2.652073    
  2.6058400E-05  2.8087899E-05   16094.55       2.052134    
  2.8087899E-05  3.1827800E-05   17910.83       1.610768    
  3.1827800E-05  3.4306700E-05   12488.71       1.932359    
  3.4306700E-05  3.5175199E-05   5820.007       3.989379    
  3.5175199E-05  3.6065601E-05   5533.345       5.022981    
  3.6065601E-05  4.0867701E-05   7688.772       1.650750    
  4.0867701E-05  4.6309200E-05   8196.986       1.363805    
  4.6309200E-05  5.2475199E-05   7164.129       1.697113    
  5.2475199E-05  5.6562199E-05   6603.795       2.095425    
  5.6562199E-05  5.9462200E-05   6184.036       2.872416    
  5.9462200E-05  6.2510902E-05   5927.396       1.478704    
  6.2510902E-05  6.7379500E-05   5685.278       2.279629    
  6.7379500E-05  7.6350902E-05   5548.406       1.137294    
  7.6350902E-05  8.6516899E-05   4365.870       1.985159    
  8.6516899E-05  9.8036500E-05   2286.875       2.350780    
  9.8036500E-05  1.1109000E-04   2779.982       1.991668    
  1.1109000E-04  1.1678600E-04   2837.775       1.894121    
  1.1678600E-04  1.2277300E-04   1934.531       3.357392    
  1.2277300E-04  1.2906799E-04   2823.355       1.956229    
  1.2906799E-04  1.3568600E-04   2809.687       3.335047    
  1.3568600E-04  1.4264201E-04   2098.131       3.745895    
  1.4264201E-04  1.4995600E-04   1666.720       3.666817    
  1.4995600E-04  1.5764400E-04   1474.938       2.135892    
  1.5764400E-04  1.6163501E-04   1157.696       6.292192    
  1.6163501E-04  1.6572700E-04   1399.922       5.578930    
  1.6572700E-04  1.6992200E-04   1514.988       4.754296    
  1.6992200E-04  1.7422400E-04   1449.956       5.178412    
  1.7422400E-04  1.8315599E-04   1451.293       3.217948    
  1.8315599E-04  1.9254700E-04   1427.325       2.114053    
  1.9254700E-04  2.0241900E-04   1373.231       3.358317    
  2.0241900E-04  2.1279699E-04   1054.088       2.857478    
  2.1279699E-04  2.2370800E-04   943.8655       3.010959    
  2.2370800E-04  2.3517800E-04   1026.691       3.254850    
  2.3517800E-04  2.4723500E-04   996.3772       3.496140    
  2.4723500E-04  2.5991100E-04   959.9138       2.419104    
  2.5991100E-04  2.7323700E-04   998.0084       3.504788    
  2.7323700E-04  2.8015400E-04   856.0097       6.795158    
  2.8015400E-04  2.8724599E-04   714.8000       6.446928    
  2.8724599E-04  2.9451799E-04   654.5449       4.625455    
  2.9451799E-04  3.0197401E-04   737.0879       4.886322    
  3.0197401E-04  3.0961799E-04   741.6529       5.803973    
  3.0961799E-04  3.1745600E-04   638.2070       3.161480    
  3.1745600E-04  3.3373301E-04   631.6976       3.758889    
  3.3373301E-04  3.5084400E-04   649.6778       2.389853    
  3.5084400E-04  3.6883200E-04   530.3382       2.894375    
  3.6883200E-04  3.8774201E-04   546.6934       4.495721    
  3.8774201E-04  4.0762199E-04   536.2735       4.190092    
  4.0762199E-04  4.2852099E-04   436.7970       3.381356    
  4.2852099E-04  4.5049199E-04   375.4625       3.014205    
  4.5049199E-04  4.7358900E-04   400.7087       3.789192    
  4.7358900E-04  4.9787102E-04   367.9596       3.703724    
  4.9787102E-04  5.1047403E-04   365.6822       6.258904    
  5.1047403E-04  5.2339700E-04   357.0327       5.246834    
  5.2339700E-04  5.3664698E-04   300.7565       5.015216    
  5.3664698E-04  5.5023201E-04   299.7634       4.891989    
  5.5023201E-04  5.7844300E-04   276.8142       3.032234    
  5.7844300E-04  6.0810102E-04   271.6650       4.080027    
  6.0810102E-04  6.3927902E-04   249.9779       4.169615    
  6.3927902E-04  6.7205500E-04   204.0875       2.988350    
  6.7205500E-04  7.0651202E-04   223.9129       3.376978    
  7.0651202E-04  7.4273598E-04   190.0601       4.898406    
  7.4273598E-04  7.8081700E-04   174.3441       2.572029    
  7.8081700E-04  8.2085002E-04   124.1805       5.796254    
  8.2085002E-04  8.6293602E-04   116.6828       3.957719    
  8.6293602E-04  9.0717903E-04   114.4589       3.991074    
  9.0717903E-04  9.5369201E-04   113.4011       3.531681    
  9.5369201E-04  9.6163998E-04   105.8563       8.915291    
  9.6163998E-04  9.7783399E-04   91.02190       8.013157    
  9.7783399E-04  1.0025901E-03   96.32624       4.543592    
  1.0025901E-03  1.0539900E-03   86.59169       3.394116    
  1.0539900E-03  1.1080300E-03   79.63531       4.212779    
  1.1080300E-03  1.1648400E-03   78.29949       3.749192    
  1.1648400E-03  1.1943300E-03   68.35788       6.259988    
  1.1943300E-03  1.2245600E-03   71.45370       8.542599    
  1.2245600E-03  1.2873500E-03   66.78541       3.293229    
  1.2873500E-03  1.3533500E-03   66.09968       5.776446    
  1.3533500E-03  1.4227401E-03   63.29163       3.730906    
  1.4227401E-03  1.4956900E-03   61.49875       4.948135    
  1.4956900E-03  1.5335500E-03   51.97089       4.755744    
  1.5335500E-03  1.5723699E-03   58.52644       7.956789    
  1.5723699E-03  1.6121800E-03   55.15681       4.596747    
  1.6121800E-03  1.6529900E-03   50.11341       9.155925    
  1.6529900E-03  1.7377400E-03   49.91411       5.114707    
  1.7377400E-03  1.8268300E-03   45.31592       6.013542    
  1.8268300E-03  1.8730800E-03   43.46025       5.625579    
  1.8730800E-03  1.9205000E-03   35.98029       7.009625    
  1.9205000E-03  1.9691200E-03   36.97302       9.002420    
  1.9691200E-03  2.0189700E-03   39.58373       7.769892    
  2.0189700E-03  2.1224800E-03   34.75011       4.454928    
  2.1224800E-03  2.2313001E-03   32.58176       5.198371    
  2.2313001E-03  2.2688799E-03   28.98858       9.342693    
  2.2688799E-03  2.3068599E-03   30.30201       7.099758    
  2.3068599E-03  2.3457000E-03   28.54718       9.174893    
  2.3457000E-03  2.3652499E-03   30.80706       15.74550    
  2.3652499E-03  2.3852000E-03   27.93397       16.56421    
  2.3852000E-03  2.4251300E-03   22.09086       15.80219    
  2.4251300E-03  2.4659701E-03   26.42485       13.09855    
  2.4659701E-03  2.5923999E-03   21.31609       8.844826    
  2.5923999E-03  2.7253199E-03   18.80837       6.693230    
  2.7253199E-03  2.8650500E-03   18.29793       8.616959    
  2.8650500E-03  3.0119400E-03   16.62130       6.871371    
  3.0119400E-03  3.0881900E-03   13.89286       6.458021    
  3.0881900E-03  3.1663701E-03   16.35307       8.654696    
  3.1663701E-03  3.2465300E-03   15.48433       8.424833    
  3.2465300E-03  3.3287101E-03   12.71331       9.734624    
  3.3287101E-03  3.4993801E-03   12.14946       6.309930    
  3.4993801E-03  3.6787901E-03   10.95210       6.129514    
  3.6787901E-03  3.8674099E-03   10.68000       5.206027    
  3.8674099E-03  4.0656999E-03   9.824306       6.532371    
  4.0656999E-03  4.2741499E-03   7.751855       7.450448    
  4.2741499E-03  4.4932901E-03   7.951804       6.444489    
  4.4932901E-03  4.6070400E-03   7.986733       11.43028    
  4.6070400E-03  4.7236700E-03   7.419852       10.39785    
  4.7236700E-03  4.8432499E-03   7.476118       10.54456    
  4.8432499E-03  4.9658502E-03   8.497782       10.34111    
  4.9658502E-03  5.2204598E-03   6.438272       9.335046    
  5.2204598E-03  5.4881200E-03   6.412179       6.578800    
  5.4881200E-03  5.7695000E-03   5.804468       5.867170    
  5.7695000E-03  5.9155500E-03   4.836745       13.18121    
  5.9155500E-03  6.0653100E-03   5.040683       8.659409    
  6.0653100E-03  6.2188501E-03   5.082712       12.42417    
  6.2188501E-03  6.3762800E-03   5.180587       10.06834    
  6.3762800E-03  6.5377001E-03   3.897378       12.66949    
  6.5377001E-03  6.5923799E-03   3.807990       25.81652    
  6.5923799E-03  6.6475999E-03   3.848825       20.06935    
  6.6475999E-03  6.7031998E-03   3.984648       17.37844    
  6.7031998E-03  6.8728901E-03   4.836419       12.20436    
  6.8728901E-03  7.0468802E-03   3.585399       14.51742    
  7.0468802E-03  7.2252699E-03   4.523727       10.23777    
  7.2252699E-03  7.4081798E-03   3.607865       8.903021    
  7.4081798E-03  7.5957198E-03   3.956370       10.76524    
  7.5957198E-03  7.7880099E-03   3.746155       8.799158    
  7.7880099E-03  7.9851598E-03   3.361686       8.481852    
  7.9851598E-03  8.1873098E-03   3.093755       10.83552    
  8.1873098E-03  8.3945701E-03   3.626004       9.465667    
  8.3945701E-03  8.6070802E-03   2.946516       14.18892    
  8.6070802E-03  8.8249696E-03   2.357363       15.23421    
  8.8249696E-03  9.0483697E-03   3.031463       10.25275    
  9.0483697E-03  9.2774397E-03   2.986638       15.82372    
  9.2774397E-03  9.5122904E-03   2.973477       15.87966    
  9.5122904E-03  9.7530996E-03   2.442886       9.983639    
  9.7530996E-03  9.9999998E-03   2.766889       9.393294    
  9.9999998E-03  1.0253200E-02   2.146685       16.10841    
  1.0253200E-02  1.0512700E-02   2.110776       11.44513    
  1.0512700E-02  1.0778800E-02   1.929659       16.54535    
  1.0778800E-02  1.1051700E-02   1.735308       13.34044    
  1.1051700E-02  1.1331500E-02   2.384273       11.83220    
  1.1331500E-02  1.1618300E-02   2.022422       13.55785    
  1.1618300E-02  1.1912500E-02   2.220448       13.70458    
  1.1912500E-02  1.2214000E-02   1.677701       10.32083    
  1.2214000E-02  1.2523200E-02   1.978346       10.66417    
  1.2523200E-02  1.2840200E-02   1.910989       17.51175    
  1.2840200E-02  1.3165300E-02   2.017708       9.614176    
  1.3165300E-02  1.3498600E-02   1.609326       10.23775    
  1.3498600E-02  1.3840300E-02   1.857781       10.40027    
  1.3840300E-02  1.4190700E-02   1.587713       13.44355    
  1.4190700E-02  1.4549900E-02   1.451032       12.89658    
  1.4549900E-02  1.4918300E-02   1.677020       8.278161    
  1.4918300E-02  1.5295900E-02   1.528206       13.41912    
  1.5295900E-02  1.5683100E-02   1.126356       15.52977    
  1.5683100E-02  1.6080100E-02   1.406873       9.234284    
  1.6080100E-02  1.6487200E-02  0.9549919       18.25242    
  1.6487200E-02  1.6904600E-02   1.599039       13.47855    
  1.6904600E-02  1.7332500E-02   1.090796       15.50725    
  1.7332500E-02  1.7771300E-02  0.9242100       13.94615    
  1.7771300E-02  1.8221200E-02  0.9674803       11.19942    
  1.8221200E-02  1.8682500E-02  0.6663486       14.76799    
  1.8682500E-02  1.9155400E-02  0.7087153       19.39695    
  1.9155400E-02  1.9640300E-02   1.029452       16.22236    
  1.9640300E-02  2.0000000E-02  0.5073235       19.52410    
