 # Detector n:  1  HeIInflux 
 # N. of energy intervals 260
  1.0000100E-14  2.0000000E-13  9.4463820E+10   3.751332    
  2.0000000E-13  2.9297300E-13  2.0775238E+11   3.246537    
  2.9297300E-13  4.2916701E-13  3.0221727E+11   2.220044    
  4.2916701E-13  6.2867300E-13  4.1565956E+11   1.606692    
  6.2867300E-13  9.2092198E-13  5.7725636E+11   1.100992    
  9.2092198E-13  1.3490300E-12  7.7708637E+11  0.7831926    
  1.3490300E-12  1.9761499E-12  1.0133284E+12  0.7031963    
  1.9761499E-12  2.8947901E-12  1.2808229E+12  0.5094700    
  2.8947901E-12  4.2404799E-12  1.5217185E+12  0.3568199    
  4.2404799E-12  6.2117499E-12  1.6951189E+12  0.3034618    
  6.2117499E-12  9.0993801E-12  1.7119765E+12  0.2553658    
  9.0993801E-12  1.3329400E-11  1.5163239E+12  0.2287898    
  1.3329400E-11  1.9525799E-11  1.1232679E+12  0.1974169    
  1.9525799E-11  2.8602700E-11  6.6100265E+11  0.2229000    
  2.8602700E-11  4.1899099E-11  3.0095550E+11  0.2876853    
  4.1899099E-11  6.1376598E-11  1.2019334E+11  0.3138126    
  6.1376598E-11  8.9908601E-11  5.2390810E+10  0.4372607    
  8.9908601E-11  1.3170399E-10  2.6226414E+10  0.4622514    
  1.3170399E-10  1.9292901E-10  1.4628722E+10  0.5163722    
  1.9292901E-10  2.8261499E-10  9.1031972E+09  0.5166819    
  2.8261499E-10  4.1399401E-10  5.9543204E+09  0.5645917    
  4.1399401E-10  5.3157900E-10  4.3314125E+09  0.6824005    
  5.3157900E-10  6.2506200E-10  3.5061829E+09  0.8748665    
  6.2506200E-10  6.8256001E-10  3.0422950E+09   1.088373    
  6.8256001E-10  8.3368101E-10  2.6550828E+09  0.8264619    
  8.3368101E-10  8.7642499E-10  2.2986875E+09   1.322773    
  8.7642499E-10  1.1253500E-09  1.9893938E+09  0.6349431    
  1.1253500E-09  1.4449800E-09  1.5364901E+09  0.7142476    
  1.4449800E-09  1.8553900E-09  1.2036070E+09  0.8003420    
  1.8553900E-09  2.3823701E-09  9.3301920E+08  0.7070736    
  2.3823701E-09  3.0590199E-09  7.3695290E+08  0.6420743    
  3.0590199E-09  3.9278598E-09  5.6802797E+08  0.6929434    
  3.9278598E-09  5.0434799E-09  4.4348035E+08  0.6711262    
  5.0434799E-09  6.4759500E-09  3.4211363E+08  0.6954314    
  6.4759500E-09  8.3152898E-09  2.6619458E+08  0.7654560    
  8.3152898E-09  1.0677000E-08  2.0854597E+08  0.6612897    
  1.0677000E-08  1.3709600E-08  1.6634949E+08  0.6346442    
  1.3709600E-08  1.7603501E-08  1.2961587E+08  0.6894727    
  1.7603501E-08  2.2603301E-08  9.9372088E+07  0.7218652    
  2.2603301E-08  2.9023200E-08  7.7867688E+07  0.6279007    
  2.9023200E-08  3.7266499E-08  5.9937432E+07  0.6777271    
  3.7266499E-08  4.7851199E-08  4.7171076E+07  0.6821603    
  4.7851199E-08  6.1442101E-08  3.6246540E+07  0.7428567    
  6.1442101E-08  7.8893301E-08  2.8284508E+07  0.5996966    
  7.8893301E-08  1.0130100E-07  2.2073418E+07  0.7224126    
  1.0130100E-07  1.3007300E-07  1.7152842E+07  0.7845321    
  1.3007300E-07  1.6701701E-07  1.3185764E+07  0.6935809    
  1.6701701E-07  2.1445400E-07  1.0289143E+07  0.6592646    
  2.1445400E-07  2.7536399E-07   7904212.      0.6822841    
  2.7536399E-07  3.5357499E-07   6125138.      0.7412838    
  3.5357499E-07  4.5399901E-07   4754152.      0.6941175    
  4.5399901E-07  5.8294700E-07   3674313.      0.7751248    
  5.8294700E-07  7.4851800E-07   2851240.      0.7908323    
  7.4851800E-07  9.6111603E-07   2204048.      0.7338334    
  9.6111603E-07  1.2341000E-06   1699528.      0.6521400    
  1.2341000E-06  1.3638900E-06   1412463.       1.149014    
  1.3638900E-06  1.5073300E-06   1292237.      0.9626967    
  1.5073300E-06  1.5846100E-06   1198708.       1.623987    
  1.5846100E-06  1.6658601E-06   1110531.       1.606010    
  1.6658601E-06  1.8410600E-06   1023857.       1.019657    
  1.8410600E-06  2.0346799E-06   929610.8       1.181727    
  2.0346799E-06  2.2486699E-06   819036.7       1.195428    
  2.2486699E-06  2.4851699E-06   732702.6       1.095328    
  2.4851699E-06  2.6125899E-06   693435.8       1.610739    
  2.6125899E-06  2.7465401E-06   647316.7       1.792160    
  2.7465401E-06  2.8634900E-06   613563.2       1.684756    
  2.8634900E-06  3.0353899E-06   595725.9       1.483030    
  3.0353899E-06  3.3546301E-06   535646.2       1.064654    
  3.3546301E-06  3.7074401E-06   482745.3       1.174606    
  3.7074401E-06  4.0973500E-06   443807.9       1.125569    
  4.0973500E-06  4.3074201E-06   389928.2       1.711457    
  4.3074201E-06  4.5282700E-06   377873.6       1.715008    
  4.5282700E-06  5.0045101E-06   346287.3       1.367820    
  5.0045101E-06  5.5308401E-06   345966.6       1.117349    
  5.5308401E-06  6.2672698E-06   252244.3       1.048597    
  6.2672698E-06  7.1017398E-06   240127.2       1.205101    
  7.1017398E-06  8.0473301E-06   208403.6       1.110296    
  8.0473301E-06  9.1188203E-06   186061.2       1.009622    
  9.1188203E-06  1.0333000E-05   157429.6       1.109621    
  1.0333000E-05  1.1708800E-05   141521.7       1.106855    
  1.1708800E-05  1.3267800E-05   119962.6      0.9513147    
  1.3267800E-05  1.5034400E-05   106123.9       1.079510    
  1.5034400E-05  1.7036200E-05   90172.66       1.067676    
  1.7036200E-05  1.9304500E-05   80438.80       1.051594    
  1.9304500E-05  2.1334799E-05   69091.05       1.237803    
  2.1334799E-05  2.1874899E-05   62579.39       2.773573    
  2.1874899E-05  2.3578599E-05   61381.82       1.489098    
  2.3578599E-05  2.4175501E-05   59070.53       2.740758    
  2.4175501E-05  2.4787500E-05   54540.14       2.363783    
  2.4787500E-05  2.6058400E-05   54402.34       1.778574    
  2.6058400E-05  2.8087899E-05   52840.39       1.395122    
  2.8087899E-05  3.1827800E-05   55281.94       1.110084    
  3.1827800E-05  3.4306700E-05   38331.08       1.709360    
  3.4306700E-05  3.5175199E-05   20351.48       3.158437    
  3.5175199E-05  3.6065601E-05   18632.23       3.458854    
  3.6065601E-05  4.0867701E-05   24166.67       1.420598    
  4.0867701E-05  4.6309200E-05   26083.54       1.234166    
  4.6309200E-05  5.2475199E-05   23182.36       1.330724    
  5.2475199E-05  5.6562199E-05   21501.21       1.439838    
  5.6562199E-05  5.9462200E-05   19651.72       1.935541    
  5.9462200E-05  6.2510902E-05   18635.34       1.912000    
  6.2510902E-05  6.7379500E-05   17803.67       1.758471    
  6.7379500E-05  7.6350902E-05   17264.35       1.173057    
  7.6350902E-05  8.6516899E-05   12816.19       1.480641    
  8.6516899E-05  9.8036500E-05   7802.866       1.651963    
  9.8036500E-05  1.1109000E-04   9160.369       1.313681    
  1.1109000E-04  1.1678600E-04   8569.157       2.340984    
  1.1678600E-04  1.2277300E-04   6186.918       2.601657    
  1.2277300E-04  1.2906799E-04   8657.406       2.290006    
  1.2906799E-04  1.3568600E-04   8438.405       1.864242    
  1.3568600E-04  1.4264201E-04   6517.714       2.010591    
  1.4264201E-04  1.4995600E-04   5142.387       2.307249    
  1.4995600E-04  1.5764400E-04   4755.938       2.232690    
  1.5764400E-04  1.6163501E-04   3858.280       3.917882    
  1.6163501E-04  1.6572700E-04   4332.972       3.456751    
  1.6572700E-04  1.6992200E-04   4526.100       3.770619    
  1.6992200E-04  1.7422400E-04   4900.926       3.704927    
  1.7422400E-04  1.8315599E-04   4807.832       2.319211    
  1.8315599E-04  1.9254700E-04   4774.132       2.197937    
  1.9254700E-04  2.0241900E-04   4206.094       2.064058    
  2.0241900E-04  2.1279699E-04   3418.680       2.635146    
  2.1279699E-04  2.2370800E-04   3364.020       2.610105    
  2.2370800E-04  2.3517800E-04   3278.327       2.335370    
  2.3517800E-04  2.4723500E-04   3347.906       2.647076    
  2.4723500E-04  2.5991100E-04   3211.236       2.334922    
  2.5991100E-04  2.7323700E-04   3344.096       2.088278    
  2.7323700E-04  2.8015400E-04   2870.216       3.742273    
  2.8015400E-04  2.8724599E-04   2338.242       3.945020    
  2.8724599E-04  2.9451799E-04   2334.342       3.749811    
  2.9451799E-04  3.0197401E-04   2348.280       3.188173    
  3.0197401E-04  3.0961799E-04   2141.802       3.494145    
  3.0961799E-04  3.1745600E-04   2149.020       3.425087    
  3.1745600E-04  3.3373301E-04   2212.366       2.563020    
  3.3373301E-04  3.5084400E-04   2138.367       2.409312    
  3.5084400E-04  3.6883200E-04   1788.602       2.705264    
  3.6883200E-04  3.8774201E-04   1676.211       2.115607    
  3.8774201E-04  4.0762199E-04   1718.813       2.317098    
  4.0762199E-04  4.2852099E-04   1354.281       2.601844    
  4.2852099E-04  4.5049199E-04   1202.205       2.643467    
  4.5049199E-04  4.7358900E-04   1253.877       2.804518    
  4.7358900E-04  4.9787102E-04   1185.468       2.864455    
  4.9787102E-04  5.1047403E-04   1151.220       3.866564    
  5.1047403E-04  5.2339700E-04   1113.859       3.623892    
  5.2339700E-04  5.3664698E-04   824.5929       4.024645    
  5.3664698E-04  5.5023201E-04   987.6847       3.859263    
  5.5023201E-04  5.7844300E-04   844.4658       3.007124    
  5.7844300E-04  6.0810102E-04   849.1517       3.281404    
  6.0810102E-04  6.3927902E-04   722.3985       3.224716    
  6.3927902E-04  6.7205500E-04   628.7377       3.024331    
  6.7205500E-04  7.0651202E-04   604.5411       3.191978    
  7.0651202E-04  7.4273598E-04   557.6476       3.032400    
  7.4273598E-04  7.8081700E-04   463.6312       2.843153    
  7.8081700E-04  8.2085002E-04   335.5080       3.045632    
  8.2085002E-04  8.6293602E-04   341.9522       2.969592    
  8.6293602E-04  9.0717903E-04   302.5047       3.213756    
  9.0717903E-04  9.5369201E-04   258.7334       2.861239    
  9.5369201E-04  9.6163998E-04   266.7759       8.139004    
  9.6163998E-04  9.7783399E-04   244.7247       5.538774    
  9.7783399E-04  1.0025901E-03   238.7772       4.634124    
  1.0025901E-03  1.0539900E-03   212.0325       3.574508    
  1.0539900E-03  1.1080300E-03   205.2566       3.119025    
  1.1080300E-03  1.1648400E-03   175.0231       3.470795    
  1.1648400E-03  1.1943300E-03   165.7635       5.220528    
  1.1943300E-03  1.2245600E-03   190.2248       4.019911    
  1.2245600E-03  1.2873500E-03   155.7187       3.315970    
  1.2873500E-03  1.3533500E-03   157.5363       3.162575    
  1.3533500E-03  1.4227401E-03   160.6236       2.879030    
  1.4227401E-03  1.4956900E-03   148.1278       2.969191    
  1.4956900E-03  1.5335500E-03   154.8255       4.229327    
  1.5335500E-03  1.5723699E-03   148.1023       5.391313    
  1.5723699E-03  1.6121800E-03   133.7140       4.720668    
  1.6121800E-03  1.6529900E-03   146.0837       4.469985    
  1.6529900E-03  1.7377400E-03   136.0320       3.447563    
  1.7377400E-03  1.8268300E-03   119.9576       3.704643    
  1.8268300E-03  1.8730800E-03   121.1081       4.252296    
  1.8730800E-03  1.9205000E-03   117.6479       5.363336    
  1.9205000E-03  1.9691200E-03   115.0535       5.297768    
  1.9691200E-03  2.0189700E-03   109.6893       5.128455    
  2.0189700E-03  2.1224800E-03   104.7235       4.130170    
  2.1224800E-03  2.2313001E-03   97.46953       3.374052    
  2.2313001E-03  2.2688799E-03   81.00963       6.642559    
  2.2688799E-03  2.3068599E-03   74.59859       7.452830    
  2.3068599E-03  2.3457000E-03   89.52206       6.826112    
  2.3457000E-03  2.3652499E-03   84.31490       9.776126    
  2.3652499E-03  2.3852000E-03   88.68040       10.68415    
  2.3852000E-03  2.4251300E-03   74.13256       7.195385    
  2.4251300E-03  2.4659701E-03   69.66648       7.494567    
  2.4659701E-03  2.5923999E-03   68.73023       4.706823    
  2.5923999E-03  2.7253199E-03   62.40091       4.629586    
  2.7253199E-03  2.8650500E-03   54.10396       4.954638    
  2.8650500E-03  3.0119400E-03   47.70576       5.393889    
  3.0119400E-03  3.0881900E-03   42.45832       8.284010    
  3.0881900E-03  3.1663701E-03   44.89240       6.293729    
  3.1663701E-03  3.2465300E-03   42.73263       7.213875    
  3.2465300E-03  3.3287101E-03   41.02014       5.742290    
  3.3287101E-03  3.4993801E-03   39.25426       5.188010    
  3.4993801E-03  3.6787901E-03   36.05942       5.867227    
  3.6787901E-03  3.8674099E-03   34.83456       5.411827    
  3.8674099E-03  4.0656999E-03   28.91167       5.300366    
  4.0656999E-03  4.2741499E-03   31.38531       5.254980    
  4.2741499E-03  4.4932901E-03   28.25887       5.394321    
  4.4932901E-03  4.6070400E-03   29.57911       8.037831    
  4.6070400E-03  4.7236700E-03   24.86384       8.988685    
  4.7236700E-03  4.8432499E-03   23.85135       7.301655    
  4.8432499E-03  4.9658502E-03   23.00450       7.650619    
  4.9658502E-03  5.2204598E-03   23.06995       5.570317    
  5.2204598E-03  5.4881200E-03   21.23068       5.305990    
  5.4881200E-03  5.7695000E-03   20.36125       5.662344    
  5.7695000E-03  5.9155500E-03   16.41498       8.627751    
  5.9155500E-03  6.0653100E-03   18.40395       8.346097    
  6.0653100E-03  6.2188501E-03   18.69124       8.747402    
  6.2188501E-03  6.3762800E-03   19.44111       8.059610    
  6.3762800E-03  6.5377001E-03   18.58325       7.587125    
  6.5377001E-03  6.5923799E-03   12.84547       14.75152    
  6.5923799E-03  6.6475999E-03   19.00219       13.64221    
  6.6475999E-03  6.7031998E-03   12.58632       18.79892    
  6.7031998E-03  6.8728901E-03   13.40528       10.59164    
  6.8728901E-03  7.0468802E-03   14.28741       8.228974    
  7.0468802E-03  7.2252699E-03   15.23751       8.551660    
  7.2252699E-03  7.4081798E-03   13.87465       8.005151    
  7.4081798E-03  7.5957198E-03   12.65349       8.416124    
  7.5957198E-03  7.7880099E-03   11.88515       9.299681    
  7.7880099E-03  7.9851598E-03   12.72534       9.330614    
  7.9851598E-03  8.1873098E-03   10.55042       8.885097    
  8.1873098E-03  8.3945701E-03   10.17676       10.25526    
  8.3945701E-03  8.6070802E-03   10.50957       9.744822    
  8.6070802E-03  8.8249696E-03   9.720654       10.20376    
  8.8249696E-03  9.0483697E-03   9.705794       9.209320    
  9.0483697E-03  9.2774397E-03   7.759609       10.57775    
  9.2774397E-03  9.5122904E-03   9.001921       9.903415    
  9.5122904E-03  9.7530996E-03   9.160512       8.837026    
  9.7530996E-03  9.9999998E-03   9.267421       9.572232    
  9.9999998E-03  1.0253200E-02   9.031503       8.919901    
  1.0253200E-02  1.0512700E-02   8.744385       8.545934    
  1.0512700E-02  1.0778800E-02   8.365415       9.719962    
  1.0778800E-02  1.1051700E-02   8.712125       9.800117    
  1.1051700E-02  1.1331500E-02   7.408663       10.27453    
  1.1331500E-02  1.1618300E-02   7.059679       10.82042    
  1.1618300E-02  1.1912500E-02   6.121932       10.07979    
  1.1912500E-02  1.2214000E-02   6.366132       10.43093    
  1.2214000E-02  1.2523200E-02   7.031506       9.609344    
  1.2523200E-02  1.2840200E-02   5.549842       12.44733    
  1.2840200E-02  1.3165300E-02   8.303432       8.954118    
  1.3165300E-02  1.3498600E-02   7.444419       9.708409    
  1.3498600E-02  1.3840300E-02   5.790061       9.596746    
  1.3840300E-02  1.4190700E-02   5.244885       10.26090    
  1.4190700E-02  1.4549900E-02   5.333382       11.84245    
  1.4549900E-02  1.4918300E-02   4.527883       13.06073    
  1.4918300E-02  1.5295900E-02   5.179405       9.324803    
  1.5295900E-02  1.5683100E-02   5.949959       9.930508    
  1.5683100E-02  1.6080100E-02   4.609262       11.33072    
  1.6080100E-02  1.6487200E-02   4.708243       10.38159    
  1.6487200E-02  1.6904600E-02   4.333510       10.66878    
  1.6904600E-02  1.7332500E-02   5.154635       9.959083    
  1.7332500E-02  1.7771300E-02   3.436812       13.15629    
  1.7771300E-02  1.8221200E-02   4.050126       11.75897    
  1.8221200E-02  1.8682500E-02   3.489579       11.88542    
  1.8682500E-02  1.9155400E-02   3.198123       11.03963    
  1.9155400E-02  1.9640300E-02   3.482339       11.64753    
  1.9640300E-02  2.0000000E-02   3.401109       13.62713    
