 # Detector n:  1  HeIInflux 
 # N. of energy intervals 260
  1.0000100E-14  2.0000000E-13  2.3983892E+10   20.08385    
  2.0000000E-13  2.9297300E-13  5.5956627E+10   20.39890    
  2.9297300E-13  4.2916701E-13  1.0526650E+11   9.435091    
  4.2916701E-13  6.2867300E-13  1.2501522E+11   5.965958    
  6.2867300E-13  9.2092198E-13  1.8693050E+11   6.346126    
  9.2092198E-13  1.3490300E-12  2.8342796E+11   5.385742    
  1.3490300E-12  1.9761499E-12  3.5215907E+11   3.282984    
  1.9761499E-12  2.8947901E-12  4.5335249E+11   2.646930    
  2.8947901E-12  4.2404799E-12  5.6983637E+11   2.444886    
  4.2404799E-12  6.2117499E-12  6.5994018E+11   1.562389    
  6.2117499E-12  9.0993801E-12  6.5952671E+11   1.203153    
  9.0993801E-12  1.3329400E-11  6.0537694E+11   1.110467    
  1.3329400E-11  1.9525799E-11  4.7083779E+11   1.163810    
  1.9525799E-11  2.8602700E-11  2.8069305E+11   1.159311    
  2.8602700E-11  4.1899099E-11  1.3057909E+11   1.396380    
  4.1899099E-11  6.1376598E-11  5.2840255E+10   1.649005    
  6.1376598E-11  8.9908601E-11  2.3001770E+10   1.974868    
  8.9908601E-11  1.3170399E-10  1.0837417E+10   1.070833    
  1.3170399E-10  1.9292901E-10  5.9070397E+09   1.317477    
  1.9292901E-10  2.8261499E-10  3.6717878E+09   1.057424    
  2.8261499E-10  4.1399401E-10  2.3463634E+09   1.348554    
  4.1399401E-10  5.3157900E-10  1.6842691E+09  0.9435269    
  5.3157900E-10  6.2506200E-10  1.3265681E+09   1.629295    
  6.2506200E-10  6.8256001E-10  1.1871654E+09   1.455708    
  6.8256001E-10  8.3368101E-10  1.0050303E+09   1.355498    
  8.3368101E-10  8.7642499E-10  8.9465990E+08   1.537925    
  8.7642499E-10  1.1253500E-09  7.4194912E+08  0.9351903    
  1.1253500E-09  1.4449800E-09  5.9582214E+08   1.116355    
  1.4449800E-09  1.8553900E-09  4.7180822E+08  0.8379105    
  1.8553900E-09  2.3823701E-09  3.6190880E+08  0.7582395    
  2.3823701E-09  3.0590199E-09  2.8238138E+08  0.8863525    
  3.0590199E-09  3.9278598E-09  2.1578654E+08  0.7404036    
  3.9278598E-09  5.0434799E-09  1.6826933E+08  0.8292438    
  5.0434799E-09  6.4759500E-09  1.3198678E+08   1.088518    
  6.4759500E-09  8.3152898E-09  1.0309722E+08   1.201035    
  8.3152898E-09  1.0677000E-08  8.0266928E+07   1.047496    
  1.0677000E-08  1.3709600E-08  6.1405516E+07  0.8760036    
  1.3709600E-08  1.7603501E-08  4.8887636E+07   1.141711    
  1.7603501E-08  2.2603301E-08  3.7595784E+07   1.246047    
  2.2603301E-08  2.9023200E-08  2.9653974E+07   1.120239    
  2.9023200E-08  3.7266499E-08  2.3295418E+07  0.8707201    
  3.7266499E-08  4.7851199E-08  1.7773854E+07   1.243366    
  4.7851199E-08  6.1442101E-08  1.3842435E+07  0.9067137    
  6.1442101E-08  7.8893301E-08  1.0553123E+07   1.253083    
  7.8893301E-08  1.0130100E-07   8321956.      0.7519162    
  1.0130100E-07  1.3007300E-07   6584308.       1.086215    
  1.3007300E-07  1.6701701E-07   5039744.      0.9203662    
  1.6701701E-07  2.1445400E-07   3888316.       1.036838    
  2.1445400E-07  2.7536399E-07   2962848.      0.8070292    
  2.7536399E-07  3.5357499E-07   2299437.       1.380631    
  3.5357499E-07  4.5399901E-07   1787534.       1.325719    
  4.5399901E-07  5.8294700E-07   1374105.       1.189672    
  5.8294700E-07  7.4851800E-07   1078569.       1.010652    
  7.4851800E-07  9.6111603E-07   808273.8      0.5866231    
  9.6111603E-07  1.2341000E-06   622583.1       1.104302    
  1.2341000E-06  1.3638900E-06   529158.6      0.9683468    
  1.3638900E-06  1.5073300E-06   456747.1       1.338043    
  1.5073300E-06  1.5846100E-06   419638.8       2.400405    
  1.5846100E-06  1.6658601E-06   412997.2       2.346770    
  1.6658601E-06  1.8410600E-06   376324.1       1.857185    
  1.8410600E-06  2.0346799E-06   342130.9       1.637232    
  2.0346799E-06  2.2486699E-06   308872.5       2.493728    
  2.2486699E-06  2.4851699E-06   266865.4       1.374973    
  2.4851699E-06  2.6125899E-06   256693.4       2.131930    
  2.6125899E-06  2.7465401E-06   235223.9       1.206366    
  2.7465401E-06  2.8634900E-06   226240.4       2.561095    
  2.8634900E-06  3.0353899E-06   215406.9       1.960241    
  3.0353899E-06  3.3546301E-06   197637.9       1.707316    
  3.3546301E-06  3.7074401E-06   174760.9       1.485052    
  3.7074401E-06  4.0973500E-06   156901.9       1.429732    
  4.0973500E-06  4.3074201E-06   149694.9       1.999706    
  4.3074201E-06  4.5282700E-06   135406.5       1.518227    
  4.5282700E-06  5.0045101E-06   130007.5       1.421433    
  5.0045101E-06  5.5308401E-06   124031.4      0.9190091    
  5.5308401E-06  6.2672698E-06   90740.41       2.092372    
  6.2672698E-06  7.1017398E-06   89506.77       1.914626    
  7.1017398E-06  8.0473301E-06   76382.23       2.000978    
  8.0473301E-06  9.1188203E-06   69069.00       1.332698    
  9.1188203E-06  1.0333000E-05   58559.93      0.8696052    
  1.0333000E-05  1.1708800E-05   51274.10       1.626186    
  1.1708800E-05  1.3267800E-05   43909.15       1.366031    
  1.3267800E-05  1.5034400E-05   37135.37      0.9209051    
  1.5034400E-05  1.7036200E-05   32752.98       1.886258    
  1.7036200E-05  1.9304500E-05   28487.17       1.473971    
  1.9304500E-05  2.1334799E-05   24919.11       2.048997    
  2.1334799E-05  2.1874899E-05   21884.14       3.715961    
  2.1874899E-05  2.3578599E-05   22055.55       1.727442    
  2.3578599E-05  2.4175501E-05   20942.55       3.694995    
  2.4175501E-05  2.4787500E-05   19102.26       3.393474    
  2.4787500E-05  2.6058400E-05   19592.45       3.625341    
  2.6058400E-05  2.8087899E-05   18521.00       1.976771    
  2.8087899E-05  3.1827800E-05   19685.56       1.398943    
  3.1827800E-05  3.4306700E-05   12800.80       1.262367    
  3.4306700E-05  3.5175199E-05   6742.137       6.026299    
  3.5175199E-05  3.6065601E-05   6068.276       4.928775    
  3.6065601E-05  4.0867701E-05   8664.728       2.136744    
  4.0867701E-05  4.6309200E-05   9479.520       1.973995    
  4.6309200E-05  5.2475199E-05   8198.373       2.276872    
  5.2475199E-05  5.6562199E-05   7730.008       2.197802    
  5.6562199E-05  5.9462200E-05   6750.607       1.979286    
  5.9462200E-05  6.2510902E-05   6739.807       3.601051    
  6.2510902E-05  6.7379500E-05   6426.685       2.884045    
  6.7379500E-05  7.6350902E-05   6018.931       1.269956    
  7.6350902E-05  8.6516899E-05   4567.413       2.229756    
  8.6516899E-05  9.8036500E-05   2696.589       2.086008    
  9.8036500E-05  1.1109000E-04   3061.078       2.609848    
  1.1109000E-04  1.1678600E-04   3116.222       2.878525    
  1.1678600E-04  1.2277300E-04   2218.618       3.434349    
  1.2277300E-04  1.2906799E-04   3103.419       2.792397    
  1.2906799E-04  1.3568600E-04   2998.871       1.940113    
  1.3568600E-04  1.4264201E-04   2261.364       2.933002    
  1.4264201E-04  1.4995600E-04   1778.057       3.943774    
  1.4995600E-04  1.5764400E-04   1647.151       4.967569    
  1.5764400E-04  1.6163501E-04   1251.834       5.390744    
  1.6163501E-04  1.6572700E-04   1493.591       6.354231    
  1.6572700E-04  1.6992200E-04   1646.874       4.543587    
  1.6992200E-04  1.7422400E-04   1481.384       5.839504    
  1.7422400E-04  1.8315599E-04   1651.668       3.337734    
  1.8315599E-04  1.9254700E-04   1707.014       3.463467    
  1.9254700E-04  2.0241900E-04   1539.102       3.683481    
  2.0241900E-04  2.1279699E-04   1093.652       4.400417    
  2.1279699E-04  2.2370800E-04   1167.761       5.340376    
  2.2370800E-04  2.3517800E-04   1177.371       3.052857    
  2.3517800E-04  2.4723500E-04   1190.101       2.948930    
  2.4723500E-04  2.5991100E-04   1101.800       3.158939    
  2.5991100E-04  2.7323700E-04   1193.205       3.572438    
  2.7323700E-04  2.8015400E-04   1017.747       3.149034    
  2.8015400E-04  2.8724599E-04   746.9963       5.364412    
  2.8724599E-04  2.9451799E-04   785.7583       7.361941    
  2.9451799E-04  3.0197401E-04   845.3344       4.782611    
  3.0197401E-04  3.0961799E-04   734.9175       6.736262    
  3.0961799E-04  3.1745600E-04   724.2045       6.323137    
  3.1745600E-04  3.3373301E-04   769.9246       4.237017    
  3.3373301E-04  3.5084400E-04   784.5013       4.013112    
  3.5084400E-04  3.6883200E-04   618.9365       3.817314    
  3.6883200E-04  3.8774201E-04   590.3590       4.922760    
  3.8774201E-04  4.0762199E-04   600.1376       3.845424    
  4.0762199E-04  4.2852099E-04   438.9641       5.642258    
  4.2852099E-04  4.5049199E-04   434.1066       4.997133    
  4.5049199E-04  4.7358900E-04   459.6653       3.889813    
  4.7358900E-04  4.9787102E-04   426.1962       4.217849    
  4.9787102E-04  5.1047403E-04   409.5749       9.781507    
  5.1047403E-04  5.2339700E-04   367.1796       5.899040    
  5.2339700E-04  5.3664698E-04   278.8923       5.856352    
  5.3664698E-04  5.5023201E-04   345.1725       6.372886    
  5.5023201E-04  5.7844300E-04   299.4108       3.534028    
  5.7844300E-04  6.0810102E-04   291.6771       5.716692    
  6.0810102E-04  6.3927902E-04   261.3582       4.153660    
  6.3927902E-04  6.7205500E-04   225.1374       4.413015    
  6.7205500E-04  7.0651202E-04   222.0190       3.180852    
  7.0651202E-04  7.4273598E-04   205.2408       5.094792    
  7.4273598E-04  7.8081700E-04   183.9953       4.035644    
  7.8081700E-04  8.2085002E-04   138.7284       4.046528    
  8.2085002E-04  8.6293602E-04   128.9912       4.863830    
  8.6293602E-04  9.0717903E-04   123.2933       4.511467    
  9.0717903E-04  9.5369201E-04   104.1264       5.998483    
  9.5369201E-04  9.6163998E-04   84.35740       7.488355    
  9.6163998E-04  9.7783399E-04   89.43871       6.851918    
  9.7783399E-04  1.0025901E-03   96.02583       7.186446    
  1.0025901E-03  1.0539900E-03   85.25796       4.807953    
  1.0539900E-03  1.1080300E-03   80.72269       7.373606    
  1.1080300E-03  1.1648400E-03   65.98950       4.527781    
  1.1648400E-03  1.1943300E-03   70.01822       5.701185    
  1.1943300E-03  1.2245600E-03   62.06984       7.627509    
  1.2245600E-03  1.2873500E-03   67.37640       4.412439    
  1.2873500E-03  1.3533500E-03   59.67183       4.903363    
  1.3533500E-03  1.4227401E-03   62.84981       4.361520    
  1.4227401E-03  1.4956900E-03   46.95641       8.663109    
  1.4956900E-03  1.5335500E-03   51.15142       7.228556    
  1.5335500E-03  1.5723699E-03   54.79888       9.141271    
  1.5723699E-03  1.6121800E-03   51.18628       7.923538    
  1.6121800E-03  1.6529900E-03   54.89373       7.777115    
  1.6529900E-03  1.7377400E-03   54.54478       6.402911    
  1.7377400E-03  1.8268300E-03   45.84378       7.912218    
  1.8268300E-03  1.8730800E-03   50.18236       8.316807    
  1.8730800E-03  1.9205000E-03   46.02306       6.150797    
  1.9205000E-03  1.9691200E-03   47.82074       7.737549    
  1.9691200E-03  2.0189700E-03   37.81085       8.065415    
  2.0189700E-03  2.1224800E-03   36.04107       5.501162    
  2.1224800E-03  2.2313001E-03   36.41143       4.160761    
  2.2313001E-03  2.2688799E-03   36.09950       11.87458    
  2.2688799E-03  2.3068599E-03   29.80961       12.85662    
  2.3068599E-03  2.3457000E-03   34.45423       15.03008    
  2.3457000E-03  2.3652499E-03   41.39253       14.00780    
  2.3652499E-03  2.3852000E-03   26.41241       15.79911    
  2.3852000E-03  2.4251300E-03   26.47577       16.45331    
  2.4251300E-03  2.4659701E-03   29.48954       10.65250    
  2.4659701E-03  2.5923999E-03   23.41548       6.341436    
  2.5923999E-03  2.7253199E-03   23.57048       6.573913    
  2.7253199E-03  2.8650500E-03   20.01392       4.942950    
  2.8650500E-03  3.0119400E-03   18.17123       10.77303    
  3.0119400E-03  3.0881900E-03   16.08098       11.76015    
  3.0881900E-03  3.1663701E-03   16.23414       10.03855    
  3.1663701E-03  3.2465300E-03   15.44307       10.09655    
  3.2465300E-03  3.3287101E-03   18.61063       9.172915    
  3.3287101E-03  3.4993801E-03   13.17602       7.647035    
  3.4993801E-03  3.6787901E-03   11.41332       7.430252    
  3.6787901E-03  3.8674099E-03   10.76603       8.087022    
  3.8674099E-03  4.0656999E-03   10.77366       8.136389    
  4.0656999E-03  4.2741499E-03   10.05220       9.705654    
  4.2741499E-03  4.4932901E-03   10.75764       10.84076    
  4.4932901E-03  4.6070400E-03   10.80409       13.03419    
  4.6070400E-03  4.7236700E-03   9.430758       12.08764    
  4.7236700E-03  4.8432499E-03   11.70043       13.57133    
  4.8432499E-03  4.9658502E-03   9.231899       10.73007    
  4.9658502E-03  5.2204598E-03   9.035958       7.062091    
  5.2204598E-03  5.4881200E-03   7.498594       12.70762    
  5.4881200E-03  5.7695000E-03   7.320479       8.905102    
  5.7695000E-03  5.9155500E-03   7.226302       14.60268    
  5.9155500E-03  6.0653100E-03   6.550189       12.93648    
  6.0653100E-03  6.2188501E-03   6.827544       14.58753    
  6.2188501E-03  6.3762800E-03   6.198636       9.804296    
  6.3762800E-03  6.5377001E-03   7.069639       12.16516    
  6.5377001E-03  6.5923799E-03   5.332907       28.90892    
  6.5923799E-03  6.6475999E-03   4.628276       25.09278    
  6.6475999E-03  6.7031998E-03   3.333251       31.25182    
  6.7031998E-03  6.8728901E-03   5.202656       11.94462    
  6.8728901E-03  7.0468802E-03   5.213280       12.57085    
  7.0468802E-03  7.2252699E-03   4.460652       15.46220    
  7.2252699E-03  7.4081798E-03   5.111573       12.26331    
  7.4081798E-03  7.5957198E-03   4.235899       12.76460    
  7.5957198E-03  7.7880099E-03   3.860991       13.16286    
  7.7880099E-03  7.9851598E-03   4.607525       20.55043    
  7.9851598E-03  8.1873098E-03   4.433554       16.57909    
  8.1873098E-03  8.3945701E-03   3.990163       17.06357    
  8.3945701E-03  8.6070802E-03   4.402995       10.60116    
  8.6070802E-03  8.8249696E-03   3.955828       15.15143    
  8.8249696E-03  9.0483697E-03   4.713819       16.14104    
  9.0483697E-03  9.2774397E-03   3.026864       20.95753    
  9.2774397E-03  9.5122904E-03   4.657282       9.283132    
  9.5122904E-03  9.7530996E-03   2.895101       17.67468    
  9.7530996E-03  9.9999998E-03   2.617041       17.15833    
  9.9999998E-03  1.0253200E-02   2.835585       19.83240    
  1.0253200E-02  1.0512700E-02   2.196159       21.91035    
  1.0512700E-02  1.0778800E-02   3.472740       14.84245    
  1.0778800E-02  1.1051700E-02   3.582524       16.74346    
  1.1051700E-02  1.1331500E-02   2.393142       17.00235    
  1.1331500E-02  1.1618300E-02   2.728235       15.07292    
  1.1618300E-02  1.1912500E-02   2.793834       14.78580    
  1.1912500E-02  1.2214000E-02   1.561852       15.62357    
  1.2214000E-02  1.2523200E-02   2.687309       14.90476    
  1.2523200E-02  1.2840200E-02   2.686379       19.02428    
  1.2840200E-02  1.3165300E-02   2.132063       21.53741    
  1.3165300E-02  1.3498600E-02   1.713544       15.69278    
  1.3498600E-02  1.3840300E-02   1.845852       15.61669    
  1.3840300E-02  1.4190700E-02   1.911350       19.91187    
  1.4190700E-02  1.4549900E-02   2.265177       20.05432    
  1.4549900E-02  1.4918300E-02   1.704130       19.20582    
  1.4918300E-02  1.5295900E-02   1.814618       19.55056    
  1.5295900E-02  1.5683100E-02   1.593149       15.58858    
  1.5683100E-02  1.6080100E-02   1.954649       14.74405    
  1.6080100E-02  1.6487200E-02   1.501571       15.25749    
  1.6487200E-02  1.6904600E-02   1.966541       18.62558    
  1.6904600E-02  1.7332500E-02   2.076378       13.33242    
  1.7332500E-02  1.7771300E-02   1.719947       9.746897    
  1.7771300E-02  1.8221200E-02   1.209079       20.65489    
  1.8221200E-02  1.8682500E-02   1.380838       19.04331    
  1.8682500E-02  1.9155400E-02   1.817711       15.70245    
  1.9155400E-02  1.9640300E-02   1.377668       15.97589    
  1.9640300E-02  2.0000000E-02  0.8571771       29.14005    
