 # Detector n:  1  HeIInflux 
 # N. of energy intervals 260
  1.0000100E-14  2.0000000E-13  3.8763020E+10   20.76140    
  2.0000000E-13  2.9297300E-13  7.9043674E+10   16.78437    
  2.9297300E-13  4.2916701E-13  1.1930314E+11   10.94621    
  4.2916701E-13  6.2867300E-13  1.7997953E+11   6.221097    
  6.2867300E-13  9.2092198E-13  2.5785985E+11   5.317658    
  9.2092198E-13  1.3490300E-12  3.4869700E+11   4.665021    
  1.3490300E-12  1.9761499E-12  4.3943684E+11   3.380489    
  1.9761499E-12  2.8947901E-12  5.7446302E+11   2.613320    
  2.8947901E-12  4.2404799E-12  6.8811928E+11   2.025293    
  4.2404799E-12  6.2117499E-12  7.6189060E+11   1.917538    
  6.2117499E-12  9.0993801E-12  7.9133626E+11   1.272770    
  9.0993801E-12  1.3329400E-11  7.3232469E+11  0.7893305    
  1.3329400E-11  1.9525799E-11  5.5972050E+11   1.168776    
  1.9525799E-11  2.8602700E-11  3.4617151E+11   1.278823    
  2.8602700E-11  4.1899099E-11  1.6752253E+11  0.7738967    
  4.1899099E-11  6.1376598E-11  7.0959464E+10  0.9691105    
  6.1376598E-11  8.9908601E-11  3.1690408E+10   1.356149    
  8.9908601E-11  1.3170399E-10  1.5252711E+10   1.012513    
  1.3170399E-10  1.9292901E-10  8.3810017E+09   1.264929    
  1.9292901E-10  2.8261499E-10  5.2893471E+09   1.170082    
  2.8261499E-10  4.1399401E-10  3.4261604E+09  0.9765163    
  4.1399401E-10  5.3157900E-10  2.4423122E+09   1.130493    
  5.3157900E-10  6.2506200E-10  2.0061806E+09   1.127860    
  6.2506200E-10  6.8256001E-10  1.7833532E+09   1.441909    
  6.8256001E-10  8.3368101E-10  1.5271456E+09   1.134863    
  8.3368101E-10  8.7642499E-10  1.3299263E+09   2.536342    
  8.7642499E-10  1.1253500E-09  1.1549542E+09  0.8250616    
  1.1253500E-09  1.4449800E-09  8.8665747E+08   1.314919    
  1.4449800E-09  1.8553900E-09  6.8947878E+08  0.7152095    
  1.8553900E-09  2.3823701E-09  5.4045818E+08  0.9764676    
  2.3823701E-09  3.0590199E-09  4.2368288E+08  0.7412341    
  3.0590199E-09  3.9278598E-09  3.2425760E+08  0.7842771    
  3.9278598E-09  5.0434799E-09  2.5715491E+08  0.8044290    
  5.0434799E-09  6.4759500E-09  2.0304158E+08   1.098198    
  6.4759500E-09  8.3152898E-09  1.5932790E+08  0.7593266    
  8.3152898E-09  1.0677000E-08  1.2230918E+08  0.8600015    
  1.0677000E-08  1.3709600E-08  9.4761856E+07   1.107491    
  1.3709600E-08  1.7603501E-08  7.4559528E+07  0.8865044    
  1.7603501E-08  2.2603301E-08  5.7931524E+07  0.5142582    
  2.2603301E-08  2.9023200E-08  4.5429424E+07  0.7908298    
  2.9023200E-08  3.7266499E-08  3.5090444E+07  0.8610431    
  3.7266499E-08  4.7851199E-08  2.7448292E+07  0.6322133    
  4.7851199E-08  6.1442101E-08  2.1205540E+07  0.9409138    
  6.1442101E-08  7.8893301E-08  1.6607049E+07   1.004538    
  7.8893301E-08  1.0130100E-07  1.3038444E+07  0.6382214    
  1.0130100E-07  1.3007300E-07  1.0130060E+07  0.6725929    
  1.3007300E-07  1.6701701E-07   7924814.      0.9720662    
  1.6701701E-07  2.1445400E-07   6204707.      0.9361591    
  2.1445400E-07  2.7536399E-07   4746586.      0.4600883    
  2.7536399E-07  3.5357499E-07   3668900.      0.8059530    
  3.5357499E-07  4.5399901E-07   2864050.      0.8836610    
  4.5399901E-07  5.8294700E-07   2186760.       1.029469    
  5.8294700E-07  7.4851800E-07   1697512.      0.7067623    
  7.4851800E-07  9.6111603E-07   1284825.      0.9470987    
  9.6111603E-07  1.2341000E-06   999133.4      0.9993386    
  1.2341000E-06  1.3638900E-06   841824.4      0.6264305    
  1.3638900E-06  1.5073300E-06   747418.9       1.279654    
  1.5073300E-06  1.5846100E-06   691852.3       1.779049    
  1.5846100E-06  1.6658601E-06   644822.2       1.205438    
  1.6658601E-06  1.8410600E-06   608903.2       1.115963    
  1.8410600E-06  2.0346799E-06   557408.9       1.334690    
  2.0346799E-06  2.2486699E-06   499725.6       1.265294    
  2.2486699E-06  2.4851699E-06   445569.6       1.398574    
  2.4851699E-06  2.6125899E-06   420263.0       1.993647    
  2.6125899E-06  2.7465401E-06   385617.4       1.684294    
  2.7465401E-06  2.8634900E-06   371408.7       2.124672    
  2.8634900E-06  3.0353899E-06   352102.1       1.614942    
  3.0353899E-06  3.3546301E-06   324154.9      0.6269768    
  3.3546301E-06  3.7074401E-06   299009.3       1.457562    
  3.7074401E-06  4.0973500E-06   257285.2       1.010400    
  4.0973500E-06  4.3074201E-06   241442.0       1.866390    
  4.3074201E-06  4.5282700E-06   225205.5       1.574280    
  4.5282700E-06  5.0045101E-06   207430.8       1.214662    
  5.0045101E-06  5.5308401E-06   206987.7       1.514928    
  5.5308401E-06  6.2672698E-06   142947.1       1.061925    
  6.2672698E-06  7.1017398E-06   144247.4      0.7574344    
  7.1017398E-06  8.0473301E-06   124417.1       1.166443    
  8.0473301E-06  9.1188203E-06   111530.4       1.191281    
  9.1188203E-06  1.0333000E-05   96681.77       1.225522    
  1.0333000E-05  1.1708800E-05   83186.88       1.224589    
  1.1708800E-05  1.3267800E-05   71294.59       1.383169    
  1.3267800E-05  1.5034400E-05   62021.34       1.346091    
  1.5034400E-05  1.7036200E-05   53365.80       1.825831    
  1.7036200E-05  1.9304500E-05   46309.88       1.294552    
  1.9304500E-05  2.1334799E-05   41745.89       1.883885    
  2.1334799E-05  2.1874899E-05   41088.41       2.977867    
  2.1874899E-05  2.3578599E-05   35642.32       1.278762    
  2.3578599E-05  2.4175501E-05   35669.00       2.783938    
  2.4175501E-05  2.4787500E-05   33786.11       3.271189    
  2.4787500E-05  2.6058400E-05   33330.11       1.861358    
  2.6058400E-05  2.8087899E-05   31203.76       1.494488    
  2.8087899E-05  3.1827800E-05   33405.22      0.7896981    
  3.1827800E-05  3.4306700E-05   21473.87       1.074353    
  3.4306700E-05  3.5175199E-05   10952.18       3.542315    
  3.5175199E-05  3.6065601E-05   9980.967       4.496385    
  3.6065601E-05  4.0867701E-05   13175.30       1.562054    
  4.0867701E-05  4.6309200E-05   14604.97       1.777537    
  4.6309200E-05  5.2475199E-05   13825.84       1.274708    
  5.2475199E-05  5.6562199E-05   12249.40       1.816367    
  5.6562199E-05  5.9462200E-05   11066.50       3.015583    
  5.9462200E-05  6.2510902E-05   10948.96       1.863043    
  6.2510902E-05  6.7379500E-05   10338.24       1.565740    
  6.7379500E-05  7.6350902E-05   10057.92       1.678281    
  7.6350902E-05  8.6516899E-05   7315.939       1.677169    
  8.6516899E-05  9.8036500E-05   4180.290       2.094368    
  9.8036500E-05  1.1109000E-04   5065.747       1.446249    
  1.1109000E-04  1.1678600E-04   5016.136       2.169162    
  1.1678600E-04  1.2277300E-04   3299.779       2.675951    
  1.2277300E-04  1.2906799E-04   4870.654       2.262969    
  1.2906799E-04  1.3568600E-04   4908.272       2.451327    
  1.3568600E-04  1.4264201E-04   3717.529       3.497355    
  1.4264201E-04  1.4995600E-04   2633.719       3.899875    
  1.4995600E-04  1.5764400E-04   2470.559       3.089849    
  1.5764400E-04  1.6163501E-04   2116.748       5.274259    
  1.6163501E-04  1.6572700E-04   2552.736       3.777482    
  1.6572700E-04  1.6992200E-04   2567.082       3.223277    
  1.6992200E-04  1.7422400E-04   2561.943       5.288067    
  1.7422400E-04  1.8315599E-04   2604.342       2.895744    
  1.8315599E-04  1.9254700E-04   2574.028       3.405944    
  1.9254700E-04  2.0241900E-04   2429.219       2.604206    
  2.0241900E-04  2.1279699E-04   1889.603       2.684412    
  2.1279699E-04  2.2370800E-04   1896.329       3.274573    
  2.2370800E-04  2.3517800E-04   1892.015       2.549569    
  2.3517800E-04  2.4723500E-04   1776.546       2.896194    
  2.4723500E-04  2.5991100E-04   1763.087       2.725781    
  2.5991100E-04  2.7323700E-04   1965.724       2.275316    
  2.7323700E-04  2.8015400E-04   1504.634       4.654346    
  2.8015400E-04  2.8724599E-04   1292.991       3.974912    
  2.8724599E-04  2.9451799E-04   1260.024       4.033267    
  2.9451799E-04  3.0197401E-04   1289.719       3.952054    
  3.0197401E-04  3.0961799E-04   1219.550       5.006624    
  3.0961799E-04  3.1745600E-04   1093.969       4.752551    
  3.1745600E-04  3.3373301E-04   1182.474       2.752959    
  3.3373301E-04  3.5084400E-04   1218.581       3.081411    
  3.5084400E-04  3.6883200E-04   1073.228       3.468575    
  3.6883200E-04  3.8774201E-04   942.4109       2.908866    
  3.8774201E-04  4.0762199E-04   982.9628       3.416052    
  4.0762199E-04  4.2852099E-04   772.1193       3.021912    
  4.2852099E-04  4.5049199E-04   714.7192       2.064095    
  4.5049199E-04  4.7358900E-04   681.5300       3.009009    
  4.7358900E-04  4.9787102E-04   689.9128       3.181721    
  4.9787102E-04  5.1047403E-04   665.4170       4.959647    
  5.1047403E-04  5.2339700E-04   633.2268       3.622097    
  5.2339700E-04  5.3664698E-04   542.1251       4.510445    
  5.3664698E-04  5.5023201E-04   566.8171       5.527798    
  5.5023201E-04  5.7844300E-04   522.2841       3.116534    
  5.7844300E-04  6.0810102E-04   488.0524       2.566453    
  6.0810102E-04  6.3927902E-04   425.2124       4.046954    
  6.3927902E-04  6.7205500E-04   352.0015       2.999319    
  6.7205500E-04  7.0651202E-04   360.4472       3.293517    
  7.0651202E-04  7.4273598E-04   306.6389       2.778073    
  7.4273598E-04  7.8081700E-04   281.3065       3.532604    
  7.8081700E-04  8.2085002E-04   217.3167       4.375371    
  8.2085002E-04  8.6293602E-04   196.5016       3.289638    
  8.6293602E-04  9.0717903E-04   193.8282       2.975675    
  9.0717903E-04  9.5369201E-04   175.2197       4.147448    
  9.5369201E-04  9.6163998E-04   153.6744       9.018467    
  9.6163998E-04  9.7783399E-04   163.1875       4.332003    
  9.7783399E-04  1.0025901E-03   152.6612       4.702068    
  1.0025901E-03  1.0539900E-03   146.7967       3.658417    
  1.0539900E-03  1.1080300E-03   138.3649       3.572811    
  1.1080300E-03  1.1648400E-03   125.7845       4.308813    
  1.1648400E-03  1.1943300E-03   112.3186       6.728032    
  1.1943300E-03  1.2245600E-03   114.5151       5.923319    
  1.2245600E-03  1.2873500E-03   110.2520       4.656478    
  1.2873500E-03  1.3533500E-03   113.5705       3.518196    
  1.3533500E-03  1.4227401E-03   93.11395       3.284453    
  1.4227401E-03  1.4956900E-03   91.93886       5.637386    
  1.4956900E-03  1.5335500E-03   87.16022       7.703676    
  1.5335500E-03  1.5723699E-03   80.69843       5.151870    
  1.5723699E-03  1.6121800E-03   78.45299       7.054165    
  1.6121800E-03  1.6529900E-03   93.47321       7.056060    
  1.6529900E-03  1.7377400E-03   87.65210       3.336201    
  1.7377400E-03  1.8268300E-03   69.68458       4.314517    
  1.8268300E-03  1.8730800E-03   69.08582       4.433490    
  1.8730800E-03  1.9205000E-03   71.54671       5.604840    
  1.9205000E-03  1.9691200E-03   62.26394       8.405986    
  1.9691200E-03  2.0189700E-03   61.79284       6.333957    
  2.0189700E-03  2.1224800E-03   49.54632       7.150476    
  2.1224800E-03  2.2313001E-03   56.10561       5.165249    
  2.2313001E-03  2.2688799E-03   51.11113       10.40189    
  2.2688799E-03  2.3068599E-03   46.08796       8.529093    
  2.3068599E-03  2.3457000E-03   48.30076       8.615758    
  2.3457000E-03  2.3652499E-03   46.71712       11.66747    
  2.3652499E-03  2.3852000E-03   47.35264       11.85837    
  2.3852000E-03  2.4251300E-03   46.13074       12.44804    
  2.4251300E-03  2.4659701E-03   39.94458       7.169360    
  2.4659701E-03  2.5923999E-03   38.96484       3.620530    
  2.5923999E-03  2.7253199E-03   37.71428       6.173601    
  2.7253199E-03  2.8650500E-03   32.21053       4.229838    
  2.8650500E-03  3.0119400E-03   31.56511       6.164990    
  3.0119400E-03  3.0881900E-03   27.31010       6.650695    
  3.0881900E-03  3.1663701E-03   26.45640       4.669516    
  3.1663701E-03  3.2465300E-03   25.19324       8.546792    
  3.2465300E-03  3.3287101E-03   25.20768       10.29798    
  3.3287101E-03  3.4993801E-03   20.76809       6.532027    
  3.4993801E-03  3.6787901E-03   20.57809       6.772182    
  3.6787901E-03  3.8674099E-03   16.87526       4.664507    
  3.8674099E-03  4.0656999E-03   17.48196       5.089150    
  4.0656999E-03  4.2741499E-03   16.39902       5.013836    
  4.2741499E-03  4.4932901E-03   14.82847       8.058086    
  4.4932901E-03  4.6070400E-03   13.94065       9.952138    
  4.6070400E-03  4.7236700E-03   16.33575       7.206699    
  4.7236700E-03  4.8432499E-03   12.62756       10.00357    
  4.8432499E-03  4.9658502E-03   11.14519       8.689547    
  4.9658502E-03  5.2204598E-03   12.33684       4.729724    
  5.2204598E-03  5.4881200E-03   10.93226       8.667383    
  5.4881200E-03  5.7695000E-03   8.550413       8.697007    
  5.7695000E-03  5.9155500E-03   9.694685       13.68861    
  5.9155500E-03  6.0653100E-03   10.24746       6.959122    
  6.0653100E-03  6.2188501E-03   9.176109       9.635621    
  6.2188501E-03  6.3762800E-03   8.352100       6.447167    
  6.3762800E-03  6.5377001E-03   8.997709       9.521747    
  6.5377001E-03  6.5923799E-03   7.686660       22.45112    
  6.5923799E-03  6.6475999E-03   8.018652       21.91073    
  6.6475999E-03  6.7031998E-03   7.845664       17.33829    
  6.7031998E-03  6.8728901E-03   9.057922       9.753323    
  6.8728901E-03  7.0468802E-03   6.971330       7.733475    
  7.0468802E-03  7.2252699E-03   7.463718       10.60672    
  7.2252699E-03  7.4081798E-03   7.489816       5.757819    
  7.4081798E-03  7.5957198E-03   6.189217       9.402472    
  7.5957198E-03  7.7880099E-03   5.431793       8.078350    
  7.7880099E-03  7.9851598E-03   7.015700       7.522830    
  7.9851598E-03  8.1873098E-03   5.860533       8.718704    
  8.1873098E-03  8.3945701E-03   7.124343       9.367747    
  8.3945701E-03  8.6070802E-03   6.076231       9.203306    
  8.6070802E-03  8.8249696E-03   4.195726       12.00656    
  8.8249696E-03  9.0483697E-03   5.030721       11.19716    
  9.0483697E-03  9.2774397E-03   5.329695       14.32502    
  9.2774397E-03  9.5122904E-03   4.825057       9.419379    
  9.5122904E-03  9.7530996E-03   3.893672       10.99433    
  9.7530996E-03  9.9999998E-03   4.311782       13.07810    
  9.9999998E-03  1.0253200E-02   4.186224       13.99403    
  1.0253200E-02  1.0512700E-02   4.358559       11.72922    
  1.0512700E-02  1.0778800E-02   5.044407       15.39262    
  1.0778800E-02  1.1051700E-02   4.610693       9.206181    
  1.1051700E-02  1.1331500E-02   4.813640       10.42975    
  1.1331500E-02  1.1618300E-02   3.892640       12.49419    
  1.1618300E-02  1.1912500E-02   3.673428       9.291728    
  1.1912500E-02  1.2214000E-02   3.996443       9.400825    
  1.2214000E-02  1.2523200E-02   3.134696       13.05618    
  1.2523200E-02  1.2840200E-02   3.192730       12.92454    
  1.2840200E-02  1.3165300E-02   2.816591       11.75471    
  1.3165300E-02  1.3498600E-02   3.421419       15.42738    
  1.3498600E-02  1.3840300E-02   3.336223       13.07570    
  1.3840300E-02  1.4190700E-02   2.794267       11.44960    
  1.4190700E-02  1.4549900E-02   2.812054       11.65314    
  1.4549900E-02  1.4918300E-02   2.369447       13.62558    
  1.4918300E-02  1.5295900E-02   3.096097       11.70105    
  1.5295900E-02  1.5683100E-02   2.422640       9.451676    
  1.5683100E-02  1.6080100E-02   2.619359       7.175381    
  1.6080100E-02  1.6487200E-02   1.998535       12.09844    
  1.6487200E-02  1.6904600E-02   2.479403       9.558688    
  1.6904600E-02  1.7332500E-02   2.385161       13.75425    
  1.7332500E-02  1.7771300E-02   2.065503       11.36587    
  1.7771300E-02  1.8221200E-02   2.217236       15.30631    
  1.8221200E-02  1.8682500E-02   1.402899       13.29331    
  1.8682500E-02  1.9155400E-02   1.823126       9.052796    
  1.9155400E-02  1.9640300E-02   1.674401       11.32687    
  1.9640300E-02  2.0000000E-02   1.371154       19.51839    
