 # Detector n:            1   HeIInflux 
 # N. of energy intervals         260
  1.0000100E-14  2.0000000E-13  7.8754775E+10  0.4050189    
  2.0000000E-13  2.9297300E-13  1.7565504E+11  0.3786505    
  2.9297300E-13  4.2916701E-13  2.4949016E+11  0.2646903    
  4.2916701E-13  6.2867300E-13  3.5044717E+11  0.1838036    
  6.2867300E-13  9.2092198E-13  4.8372249E+11  0.1321787    
  9.2092198E-13  1.3490300E-12  6.4871255E+11  9.1609970E-02
  1.3490300E-12  1.9761499E-12  8.3727254E+11  6.8515845E-02
  1.9761499E-12  2.8947901E-12  1.0523912E+12  5.5378929E-02
  2.8947901E-12  4.2404799E-12  1.2527299E+12  4.3441642E-02
  4.2404799E-12  6.2117499E-12  1.3903204E+12  3.3884566E-02
  6.2117499E-12  9.0993801E-12  1.4138211E+12  2.9666370E-02
  9.0993801E-12  1.3329400E-11  1.2853243E+12  2.6265200E-02
  1.3329400E-11  1.9525799E-11  1.0097333E+12  2.4760770E-02
  1.9525799E-11  2.8602700E-11  6.6634934E+11  2.3971202E-02
  2.8602700E-11  4.1899099E-11  3.6942427E+11  2.7183414E-02
  4.1899099E-11  6.1376598E-11  1.8463151E+11  2.9757466E-02
  6.1376598E-11  8.9908601E-11  8.4082647E+10  3.5557169E-02
  8.9908601E-11  1.3170399E-10  3.2606659E+10  4.4130541E-02
  1.3170399E-10  1.9292901E-10  1.1983200E+10  5.8844566E-02
  1.9292901E-10  2.8261499E-10  5.4604283E+09  7.3909938E-02
  2.8261499E-10  4.1399401E-10  3.1818340E+09  8.0534406E-02
  4.1399401E-10  5.3157900E-10  2.2253202E+09  0.1009201    
  5.3157900E-10  6.2506200E-10  1.7763121E+09  0.1258180    
  6.2506200E-10  6.8256001E-10  1.5515977E+09  0.1631012    
  6.8256001E-10  8.3368101E-10  1.3282209E+09  0.1098999    
  8.3368101E-10  8.7642499E-10  1.1518687E+09  0.2238251    
  8.7642499E-10  1.1253500E-09  9.8307898E+08  0.1019375    
  1.1253500E-09  1.4449800E-09  7.5409875E+08  9.9628270E-02
  1.4449800E-09  1.8553900E-09  5.8082502E+08  0.1059976    
  1.8553900E-09  2.3823701E-09  4.4747389E+08  0.1046053    
  2.3823701E-09  3.0590199E-09  3.4597846E+08  0.1052873    
  3.0590199E-09  3.9278598E-09  2.6545158E+08  0.1038098    
  3.9278598E-09  5.0434799E-09  2.0591339E+08  0.1063680    
  5.0434799E-09  6.4759500E-09  1.5990589E+08  0.1080567    
  6.4759500E-09  8.3152898E-09  1.2411972E+08  0.1022775    
  8.3152898E-09  1.0677000E-08  9.6042296E+07  0.1039381    
  1.0677000E-08  1.3709600E-08  7.4528256E+07  0.1070196    
  1.3709600E-08  1.7603501E-08  5.7671292E+07  0.1105715    
  1.7603501E-08  2.2603301E-08  4.4585880E+07  0.1021665    
  2.2603301E-08  2.9023200E-08  3.4373832E+07  0.1051097    
  2.9023200E-08  3.7266499E-08  2.6682126E+07  0.1068933    
  3.7266499E-08  4.7851199E-08  2.0562306E+07  0.1113226    
  4.7851199E-08  6.1442101E-08  1.5864372E+07  0.1096958    
  6.1442101E-08  7.8893301E-08  1.2233520E+07  0.1087933    
  7.8893301E-08  1.0130100E-07   9431408.      0.1133525    
  1.0130100E-07  1.3007300E-07   7262911.      0.1086118    
  1.3007300E-07  1.6701701E-07   5572530.      0.1158517    
  1.6701701E-07  2.1445400E-07   4287254.      0.1093234    
  2.1445400E-07  2.7536399E-07   3292793.      0.1109606    
  2.7536399E-07  3.5357499E-07   2552876.      0.1178677    
  3.5357499E-07  4.5399901E-07   1907554.      0.1133348    
  4.5399901E-07  5.8294700E-07   1467757.      0.1127993    
  5.8294700E-07  7.4851800E-07   1132689.      0.1138910    
  7.4851800E-07  9.6111603E-07   865748.8      0.1187828    
  9.6111603E-07  1.2341000E-06   659994.0      0.1208074    
  1.2341000E-06  1.3638900E-06   545032.4      0.1840513    
  1.3638900E-06  1.5073300E-06   490689.1      0.1868468    
  1.5073300E-06  1.5846100E-06   451854.0      0.2567704    
  1.5846100E-06  1.6658601E-06   427737.5      0.2658733    
  1.6658601E-06  1.8410600E-06   395685.1      0.1840359    
  1.8410600E-06  2.0346799E-06   373784.1      0.1779419    
  2.0346799E-06  2.2486699E-06   297643.2      0.1944730    
  2.2486699E-06  2.4851699E-06   282147.9      0.1924521    
  2.4851699E-06  2.6125899E-06   252512.7      0.2765265    
  2.6125899E-06  2.7465401E-06   233623.7      0.2842757    
  2.7465401E-06  2.8634900E-06   231048.5      0.3004554    
  2.8634900E-06  3.0353899E-06   220246.2      0.2515623    
  3.0353899E-06  3.3546301E-06   201422.8      0.1943181    
  3.3546301E-06  3.7074401E-06   182331.2      0.2008946    
  3.7074401E-06  4.0973500E-06   162725.7      0.1968455    
  4.0973500E-06  4.3074201E-06   149333.0      0.2748690    
  4.3074201E-06  4.5282700E-06   139629.2      0.2914174    
  4.5282700E-06  5.0045101E-06   129332.1      0.1976904    
  5.0045101E-06  5.5308401E-06   129232.8      0.1815099    
  5.5308401E-06  6.2672698E-06   86020.70      0.1990709    
  6.2672698E-06  7.1017398E-06   88009.87      0.1849388    
  7.1017398E-06  8.0473301E-06   76826.70      0.1892729    
  8.0473301E-06  9.1188203E-06   66449.62      0.1855925    
  9.1188203E-06  1.0333000E-05   56789.60      0.1913145    
  1.0333000E-05  1.1708800E-05   49714.00      0.1870511    
  1.1708800E-05  1.3267800E-05   43296.47      0.1920599    
  1.3267800E-05  1.5034400E-05   36883.75      0.1820072    
  1.5034400E-05  1.7036200E-05   31976.19      0.1989038    
  1.7036200E-05  1.9304500E-05   27498.75      0.1913625    
  1.9304500E-05  2.1334799E-05   24012.74      0.2223031    
  2.1334799E-05  2.1874899E-05   22414.74      0.4596964    
  2.1874899E-05  2.3578599E-05   21303.09      0.2711629    
  2.3578599E-05  2.4175501E-05   20353.02      0.4394795    
  2.4175501E-05  2.4787500E-05   19893.44      0.4430812    
  2.4787500E-05  2.6058400E-05   19120.42      0.3246374    
  2.6058400E-05  2.8087899E-05   18542.26      0.2547840    
  2.8087899E-05  3.1827800E-05   19650.71      0.1879649    
  3.1827800E-05  3.4306700E-05   11763.03      0.2896649    
  3.4306700E-05  3.5175199E-05   5758.546      0.7010388    
  3.5175199E-05  3.6065601E-05   5397.408      0.6843482    
  3.6065601E-05  4.0867701E-05   7362.750      0.2626327    
  4.0867701E-05  4.6309200E-05   8646.341      0.2270890    
  4.6309200E-05  5.2475199E-05   7948.900      0.2236350    
  5.2475199E-05  5.6562199E-05   7116.800      0.2814696    
  5.6562199E-05  5.9462200E-05   6652.339      0.3555775    
  5.9462200E-05  6.2510902E-05   6382.598      0.3581324    
  6.2510902E-05  6.7379500E-05   6095.772      0.2956609    
  6.7379500E-05  7.6350902E-05   6082.691      0.2085230    
  7.6350902E-05  8.6516899E-05   4207.186      0.2403769    
  8.6516899E-05  9.8036500E-05   2379.078      0.3060696    
  9.8036500E-05  1.1109000E-04   3012.716      0.2582882    
  1.1109000E-04  1.1678600E-04   2983.089      0.3750308    
  1.1678600E-04  1.2277300E-04   2052.845      0.4412382    
  1.2277300E-04  1.2906799E-04   3014.952      0.3506509    
  1.2906799E-04  1.3568600E-04   3017.015      0.3489563    
  1.3568600E-04  1.4264201E-04   2196.125      0.3991257    
  1.4264201E-04  1.4995600E-04   1631.760      0.4382178    
  1.4995600E-04  1.5764400E-04   1524.079      0.4680569    
  1.5764400E-04  1.6163501E-04   1225.518      0.6980261    
  1.6163501E-04  1.6572700E-04   1483.200      0.6279737    
  1.6572700E-04  1.6992200E-04   1570.773      0.6016998    
  1.6992200E-04  1.7422400E-04   1579.919      0.6021029    
  1.7422400E-04  1.8315599E-04   1621.950      0.3985201    
  1.8315599E-04  1.9254700E-04   1604.523      0.4079162    
  1.9254700E-04  2.0241900E-04   1453.801      0.4108285    
  2.0241900E-04  2.1279699E-04   1120.651      0.4405205    
  2.1279699E-04  2.2370800E-04   1138.138      0.4294692    
  2.2370800E-04  2.3517800E-04   1122.453      0.4308348    
  2.3517800E-04  2.4723500E-04   1128.704      0.4135830    
  2.4723500E-04  2.5991100E-04   1113.154      0.4013710    
  2.5991100E-04  2.7323700E-04   1168.176      0.4059242    
  2.7323700E-04  2.8015400E-04   1027.938      0.5600092    
  2.8015400E-04  2.8724599E-04   807.8240      0.6309966    
  2.8724599E-04  2.9451799E-04   805.4964      0.6389351    
  2.9451799E-04  3.0197401E-04   824.2436      0.6054873    
  3.0197401E-04  3.0961799E-04   809.1329      0.6069501    
  3.0961799E-04  3.1745600E-04   738.8599      0.6053993    
  3.1745600E-04  3.3373301E-04   766.9624      0.4087225    
  3.3373301E-04  3.5084400E-04   760.8921      0.3924966    
  3.5084400E-04  3.6883200E-04   645.8524      0.4414344    
  3.6883200E-04  3.8774201E-04   592.6536      0.4521707    
  3.8774201E-04  4.0762199E-04   573.5822      0.4391690    
  4.0762199E-04  4.2852099E-04   475.1949      0.4661514    
  4.2852099E-04  4.5049199E-04   436.0871      0.4595849    
  4.5049199E-04  4.7358900E-04   430.4625      0.4557661    
  4.7358900E-04  4.9787102E-04   419.3543      0.4432255    
  4.9787102E-04  5.1047403E-04   420.4361      0.6074426    
  5.1047403E-04  5.2339700E-04   401.5437      0.6290110    
  5.2339700E-04  5.3664698E-04   335.7591      0.6553405    
  5.3664698E-04  5.5023201E-04   349.1060      0.6356532    
  5.5023201E-04  5.7844300E-04   323.9845      0.4500576    
  5.7844300E-04  6.0810102E-04   306.1389      0.4584167    
  6.0810102E-04  6.3927902E-04   275.9352      0.4632417    
  6.3927902E-04  6.7205500E-04   231.9618      0.4932097    
  6.7205500E-04  7.0651202E-04   228.1915      0.4833105    
  7.0651202E-04  7.4273598E-04   203.6235      0.4571333    
  7.4273598E-04  7.8081700E-04   175.1945      0.4926699    
  7.8081700E-04  8.2085002E-04   140.3813      0.5033469    
  8.2085002E-04  8.6293602E-04   126.1195      0.4967128    
  8.6293602E-04  9.0717903E-04   114.6514      0.5013450    
  9.0717903E-04  9.5369201E-04   103.7604      0.4853043    
  9.5369201E-04  9.6163998E-04   95.44189       1.140091    
  9.6163998E-04  9.7783399E-04   91.68221      0.8430718    
  9.7783399E-04  1.0025901E-03   88.53971      0.7207518    
  1.0025901E-03  1.0539900E-03   84.33701      0.4999854    
  1.0539900E-03  1.1080300E-03   82.61846      0.4771102    
  1.1080300E-03  1.1648400E-03   76.19928      0.4680299    
  1.1648400E-03  1.1943300E-03   72.42269      0.7136090    
  1.1943300E-03  1.2245600E-03   74.81097      0.6658944    
  1.2245600E-03  1.2873500E-03   73.15919      0.4782207    
  1.2873500E-03  1.3533500E-03   71.62492      0.4837164    
  1.3533500E-03  1.4227401E-03   73.10750      0.4736361    
  1.4227401E-03  1.4956900E-03   70.66300      0.4773358    
  1.4956900E-03  1.5335500E-03   70.65875      0.6590408    
  1.5335500E-03  1.5723699E-03   68.89092      0.7124156    
  1.5723699E-03  1.6121800E-03   68.96459      0.6923622    
  1.6121800E-03  1.6529900E-03   70.20507      0.6651788    
  1.6529900E-03  1.7377400E-03   67.32485      0.5082012    
  1.7377400E-03  1.8268300E-03   65.76204      0.4916161    
  1.8268300E-03  1.8730800E-03   65.29140      0.6621498    
  1.8730800E-03  1.9205000E-03   61.89433      0.7329249    
  1.9205000E-03  1.9691200E-03   60.73343      0.7135484    
  1.9691200E-03  2.0189700E-03   60.63594      0.6958834    
  2.0189700E-03  2.1224800E-03   58.23663      0.4945707    
  2.1224800E-03  2.2313001E-03   56.12386      0.5067436    
  2.2313001E-03  2.2688799E-03   54.95791      0.9169416    
  2.2688799E-03  2.3068599E-03   53.57533      0.8806474    
  2.3068599E-03  2.3457000E-03   53.93408      0.8441595    
  2.3457000E-03  2.3652499E-03   54.49931       1.225969    
  2.3652499E-03  2.3852000E-03   55.98811       1.192110    
  2.3852000E-03  2.4251300E-03   52.10826      0.8749989    
  2.4251300E-03  2.4659701E-03   52.25614      0.8863890    
  2.4659701E-03  2.5923999E-03   45.03093      0.5278273    
  2.5923999E-03  2.7253199E-03   43.18307      0.5614492    
  2.7253199E-03  2.8650500E-03   39.55566      0.5709876    
  2.8650500E-03  3.0119400E-03   37.26961      0.5916898    
  3.0119400E-03  3.0881900E-03   35.67175      0.8093267    
  3.0881900E-03  3.1663701E-03   33.98245      0.8287111    
  3.1663701E-03  3.2465300E-03   32.44318      0.8201005    
  3.2465300E-03  3.3287101E-03   30.99714      0.8484953    
  3.3287101E-03  3.4993801E-03   29.50169      0.5955260    
  3.4993801E-03  3.6787901E-03   27.64099      0.6087230    
  3.6787901E-03  3.8674099E-03   26.22100      0.6119298    
  3.8674099E-03  4.0656999E-03   25.40785      0.6046048    
  4.0656999E-03  4.2741499E-03   24.27947      0.6120216    
  4.2741499E-03  4.4932901E-03   22.40876      0.6225122    
  4.4932901E-03  4.6070400E-03   21.70714      0.8569139    
  4.6070400E-03  4.7236700E-03   21.27934      0.8954953    
  4.7236700E-03  4.8432499E-03   20.00118      0.8974282    
  4.8432499E-03  4.9658502E-03   20.05397      0.9017209    
  4.9658502E-03  5.2204598E-03   18.67942      0.6300895    
  5.2204598E-03  5.4881200E-03   17.62114      0.6252128    
  5.4881200E-03  5.7695000E-03   16.38660      0.6544611    
  5.7695000E-03  5.9155500E-03   15.80503      0.9179763    
  5.9155500E-03  6.0653100E-03   14.74269      0.9610152    
  6.0653100E-03  6.2188501E-03   14.77415      0.9173076    
  6.2188501E-03  6.3762800E-03   14.23252      0.9688396    
  6.3762800E-03  6.5377001E-03   13.46605      0.9331954    
  6.5377001E-03  6.5923799E-03   13.59461       1.567060    
  6.5923799E-03  6.6475999E-03   13.25940       1.623577    
  6.6475999E-03  6.7031998E-03   13.20188       1.610001    
  6.7031998E-03  6.8728901E-03   12.59729       1.005016    
  6.8728901E-03  7.0468802E-03   12.18773       1.018920    
  7.0468802E-03  7.2252699E-03   11.72850      0.9868164    
  7.2252699E-03  7.4081798E-03   11.10314       1.000209    
  7.4081798E-03  7.5957198E-03   10.85487       1.029052    
  7.5957198E-03  7.7880099E-03   10.49969       1.030069    
  7.7880099E-03  7.9851598E-03   10.14036      0.9756148    
  7.9851598E-03  8.1873098E-03   9.774045       1.041982    
  8.1873098E-03  8.3945701E-03   9.349283       1.007354    
  8.3945701E-03  8.6070802E-03   9.031041       1.045841    
  8.6070802E-03  8.8249696E-03   8.778962       1.036066    
  8.8249696E-03  9.0483697E-03   8.528710       1.055268    
  9.0483697E-03  9.2774397E-03   8.028666       1.083885    
  9.2774397E-03  9.5122904E-03   7.803607       1.078546    
  9.5122904E-03  9.7530996E-03   7.739292       1.106288    
  9.7530996E-03  9.9999998E-03   7.386006       1.042947    
  9.9999998E-03  1.0253200E-02   7.127151       1.064323    
  1.0253200E-02  1.0512700E-02   6.853987       1.137883    
  1.0512700E-02  1.0778800E-02   6.709778       1.130044    
  1.0778800E-02  1.1051700E-02   6.502266       1.114723    
  1.1051700E-02  1.1331500E-02   6.276114       1.126816    
  1.1331500E-02  1.1618300E-02   5.918353       1.165098    
  1.1618300E-02  1.1912500E-02   5.702281       1.145037    
  1.1912500E-02  1.2214000E-02   5.677282       1.138129    
  1.2214000E-02  1.2523200E-02   5.579940       1.179010    
  1.2523200E-02  1.2840200E-02   5.364322       1.143904    
  1.2840200E-02  1.3165300E-02   5.288829       1.180376    
  1.3165300E-02  1.3498600E-02   5.020878       1.148229    
  1.3498600E-02  1.3840300E-02   4.981005       1.099302    
  1.3840300E-02  1.4190700E-02   4.796804       1.198202    
  1.4190700E-02  1.4549900E-02   4.610730       1.150253    
  1.4549900E-02  1.4918300E-02   4.522705       1.201453    
  1.4918300E-02  1.5295900E-02   4.278184       1.144605    
  1.5295900E-02  1.5683100E-02   4.179158       1.158662    
  1.5683100E-02  1.6080100E-02   4.024841       1.216053    
  1.6080100E-02  1.6487200E-02   3.904732       1.193237    
  1.6487200E-02  1.6904600E-02   3.848236       1.236331    
  1.6904600E-02  1.7332500E-02   3.683515       1.237028    
  1.7332500E-02  1.7771300E-02   3.513564       1.254411    
  1.7771300E-02  1.8221200E-02   3.314569       1.280738    
  1.8221200E-02  1.8682500E-02   3.337435       1.211671    
  1.8682500E-02  1.9155400E-02   3.204681       1.355477    
  1.9155400E-02  1.9640300E-02   3.007677       1.280640    
  1.9640300E-02  2.0000000E-02   2.968602       1.457670    
