 # Detector n:            1   HeIInflux 
 # N. of energy intervals         260
  1.0000100E-14  2.0000000E-13  2.7263386E+10   5.625247    
  2.0000000E-13  2.9297300E-13  8.9549562E+10   8.891829    
  2.9297300E-13  4.2916701E-13  1.2223336E+11   9.752127    
  4.2916701E-13  6.2867300E-13  1.7970220E+11   4.267112    
  6.2867300E-13  9.2092198E-13  2.6772788E+11   5.815080    
  9.2092198E-13  1.3490300E-12  3.5598552E+11   1.551101    
  1.3490300E-12  1.9761499E-12  4.5989393E+11   2.381026    
  1.9761499E-12  2.8947901E-12  6.1285328E+11   2.740180    
  2.8947901E-12  4.2404799E-12  7.3219257E+11   2.824754    
  4.2404799E-12  6.2117499E-12  8.2832012E+11   1.204843    
  6.2117499E-12  9.0993801E-12  8.5750179E+11  0.4152753    
  9.0993801E-12  1.3329400E-11  7.6558225E+11  0.7235816    
  1.3329400E-11  1.9525799E-11  6.1204372E+11   1.374391    
  1.9525799E-11  2.8602700E-11  3.7617579E+11  0.4186046    
  2.8602700E-11  4.1899099E-11  1.7789809E+11   1.042656    
  4.1899099E-11  6.1376598E-11  7.5152687E+10  0.5380962    
  6.1376598E-11  8.9908601E-11  2.9002752E+10   2.396024    
  8.9908601E-11  1.3170399E-10  1.0831516E+10   2.355888    
  1.3170399E-10  1.9292901E-10  4.0948475E+09   1.741822    
  1.9292901E-10  2.8261499E-10  2.1586340E+09   2.120871    
  2.8261499E-10  4.1399401E-10  1.2466729E+09  0.6312060    
  4.1399401E-10  5.3157900E-10  8.8441626E+08  0.2464208    
  5.3157900E-10  6.2506200E-10  6.9646394E+08   1.274852    
  6.2506200E-10  6.8256001E-10  6.1859117E+08   2.348571    
  6.8256001E-10  8.3368101E-10  5.2020950E+08  0.8264038    
  8.3368101E-10  8.7642499E-10  4.6002336E+08   2.130229    
  8.7642499E-10  1.1253500E-09  3.8672102E+08   1.141964    
  1.1253500E-09  1.4449800E-09  2.9333162E+08  0.8750585    
  1.4449800E-09  1.8553900E-09  2.1890635E+08   1.234098    
  1.8553900E-09  2.3823701E-09  1.6791718E+08   1.683089    
  2.3823701E-09  3.0590199E-09  1.3215179E+08  0.4155328    
  3.0590199E-09  3.9278598E-09  9.9519664E+07   1.050541    
  3.9278598E-09  5.0434799E-09  7.7164128E+07   1.338642    
  5.0434799E-09  6.4759500E-09  5.8815768E+07   1.483519    
  6.4759500E-09  8.3152898E-09  4.4967480E+07  0.8038381    
  8.3152898E-09  1.0677000E-08  3.5350340E+07   1.664783    
  1.0677000E-08  1.3709600E-08  2.7233242E+07   1.323788    
  1.3709600E-08  1.7603501E-08  2.0397626E+07  0.6564056    
  1.7603501E-08  2.2603301E-08  1.6138744E+07   1.070684    
  2.2603301E-08  2.9023200E-08  1.2198981E+07   1.672232    
  2.9023200E-08  3.7266499E-08   9145291.      0.5812884    
  3.7266499E-08  4.7851199E-08   7108812.       2.445602    
  4.7851199E-08  6.1442101E-08   5507407.       2.141172    
  6.1442101E-08  7.8893301E-08   4200236.      0.9386838    
  7.8893301E-08  1.0130100E-07   3215082.      0.6440559    
  1.0130100E-07  1.3007300E-07   2421786.       2.364296    
  1.3007300E-07  1.6701701E-07   1802072.      0.8416457    
  1.6701701E-07  2.1445400E-07   1365275.       1.599302    
  2.1445400E-07  2.7536399E-07   1047035.      0.7006981    
  2.7536399E-07  3.5357499E-07   802618.3       1.652365    
  3.5357499E-07  4.5399901E-07   605385.9       1.295389    
  4.5399901E-07  5.8294700E-07   452483.6       3.138667    
  5.8294700E-07  7.4851800E-07   332969.7       1.677579    
  7.4851800E-07  9.6111603E-07   253348.5       2.987575    
  9.6111603E-07  1.2341000E-06   192965.5      0.6715980    
  1.2341000E-06  1.3638900E-06   155674.3       2.872837    
  1.3638900E-06  1.5073300E-06   141108.1       1.475220    
  1.5073300E-06  1.5846100E-06   131703.0       2.970803    
  1.5846100E-06  1.6658601E-06   123946.4       2.036244    
  1.6658601E-06  1.8410600E-06   106355.7       1.138625    
  1.8410600E-06  2.0346799E-06   97797.33       3.555459    
  2.0346799E-06  2.2486699E-06   88059.77       1.603558    
  2.2486699E-06  2.4851699E-06   80645.38       4.464037    
  2.4851699E-06  2.6125899E-06   73814.30      0.7780515    
  2.6125899E-06  2.7465401E-06   67928.87       3.908562    
  2.7465401E-06  2.8634900E-06   64438.75       7.923719    
  2.8634900E-06  3.0353899E-06   59818.82       5.140842    
  3.0353899E-06  3.3546301E-06   53537.37       3.911404    
  3.3546301E-06  3.7074401E-06   47670.82       1.470650    
  3.7074401E-06  4.0973500E-06   41910.93       5.020661    
  4.0973500E-06  4.3074201E-06   39376.14       3.969296    
  4.3074201E-06  4.5282700E-06   36459.62       4.717642    
  4.5282700E-06  5.0045101E-06   34185.11       2.119570    
  5.0045101E-06  5.5308401E-06   32822.82       2.668564    
  5.5308401E-06  6.2672698E-06   23299.71       4.226057    
  6.2672698E-06  7.1017398E-06   22742.08       3.182724    
  7.1017398E-06  8.0473301E-06   19805.41       1.573010    
  8.0473301E-06  9.1188203E-06   16921.55       3.218453    
  9.1188203E-06  1.0333000E-05   14720.74       2.044014    
  1.0333000E-05  1.1708800E-05   12155.09      0.6468981    
  1.1708800E-05  1.3267800E-05   10262.11       2.554346    
  1.3267800E-05  1.5034400E-05   9143.889       2.046906    
  1.5034400E-05  1.7036200E-05   7694.193       3.284981    
  1.7036200E-05  1.9304500E-05   6304.166       4.281823    
  1.9304500E-05  2.1334799E-05   5821.830       2.365853    
  2.1334799E-05  2.1874899E-05   5019.493       4.224232    
  2.1874899E-05  2.3578599E-05   4864.435       6.093474    
  2.3578599E-05  2.4175501E-05   4588.379       3.422032    
  2.4175501E-05  2.4787500E-05   4415.760       4.364834    
  2.4787500E-05  2.6058400E-05   4137.438       3.677830    
  2.6058400E-05  2.8087899E-05   4048.067       2.977688    
  2.8087899E-05  3.1827800E-05   4640.880       2.317112    
  3.1827800E-05  3.4306700E-05   3063.153       3.853628    
  3.4306700E-05  3.5175199E-05   1390.339       11.52668    
  3.5175199E-05  3.6065601E-05   1300.466       20.22357    
  3.6065601E-05  4.0867701E-05   1624.479       1.733006    
  4.0867701E-05  4.6309200E-05   1937.582       4.751297    
  4.6309200E-05  5.2475199E-05   1772.752       4.301590    
  5.2475199E-05  5.6562199E-05   1556.511       1.316452    
  5.6562199E-05  5.9462200E-05   1472.353       6.868671    
  5.9462200E-05  6.2510902E-05   1431.792       5.050189    
  6.2510902E-05  6.7379500E-05   1349.230       4.150169    
  6.7379500E-05  7.6350902E-05   1346.022       4.448497    
  7.6350902E-05  8.6516899E-05   944.8109       1.767498    
  8.6516899E-05  9.8036500E-05   541.4958       4.672323    
  9.8036500E-05  1.1109000E-04   658.3691       3.529834    
  1.1109000E-04  1.1678600E-04   682.3572       5.471214    
  1.1678600E-04  1.2277300E-04   459.3438       7.458058    
  1.2277300E-04  1.2906799E-04   646.4692       3.128507    
  1.2906799E-04  1.3568600E-04   700.6010       5.917190    
  1.3568600E-04  1.4264201E-04   461.0691       6.141688    
  1.4264201E-04  1.4995600E-04   370.5083       8.280452    
  1.4995600E-04  1.5764400E-04   352.8596       6.959751    
  1.5764400E-04  1.6163501E-04   301.1766       16.00505    
  1.6163501E-04  1.6572700E-04   324.3779       10.27010    
  1.6572700E-04  1.6992200E-04   375.8972       20.60191    
  1.6992200E-04  1.7422400E-04   298.2704       7.027126    
  1.7422400E-04  1.8315599E-04   340.3817       7.115983    
  1.8315599E-04  1.9254700E-04   330.2938       10.50444    
  1.9254700E-04  2.0241900E-04   327.7121       11.29430    
  2.0241900E-04  2.1279699E-04   292.6354       3.254801    
  2.1279699E-04  2.2370800E-04   219.9512       3.883626    
  2.2370800E-04  2.3517800E-04   259.4462       8.185492    
  2.3517800E-04  2.4723500E-04   221.2403       10.47089    
  2.4723500E-04  2.5991100E-04   195.5286       6.183790    
  2.5991100E-04  2.7323700E-04   236.3673       6.427063    
  2.7323700E-04  2.8015400E-04   217.9336       17.51375    
  2.8015400E-04  2.8724599E-04   184.0558       5.557071    
  2.8724599E-04  2.9451799E-04   206.7964       11.86560    
  2.9451799E-04  3.0197401E-04   160.8741       8.336869    
  3.0197401E-04  3.0961799E-04   146.3766       13.70743    
  3.0961799E-04  3.1745600E-04   148.2355       17.34593    
  3.1745600E-04  3.3373301E-04   170.0988       3.194183    
  3.3373301E-04  3.5084400E-04   171.3465       3.493299    
  3.5084400E-04  3.6883200E-04   143.3009       5.851518    
  3.6883200E-04  3.8774201E-04   121.4948       6.664753    
  3.8774201E-04  4.0762199E-04   128.6051       9.909276    
  4.0762199E-04  4.2852099E-04   103.1292       8.760417    
  4.2852099E-04  4.5049199E-04   104.6973       3.393426    
  4.5049199E-04  4.7358900E-04   104.6902       6.461616    
  4.7358900E-04  4.9787102E-04   99.39432       6.784110    
  4.9787102E-04  5.1047403E-04   82.86413       11.87088    
  5.1047403E-04  5.2339700E-04   73.89529       10.46622    
  5.2339700E-04  5.3664698E-04   62.53934       10.73349    
  5.3664698E-04  5.5023201E-04   83.12762       3.744451    
  5.5023201E-04  5.7844300E-04   79.57927       3.192553    
  5.7844300E-04  6.0810102E-04   71.24072       5.281794    
  6.0810102E-04  6.3927902E-04   68.33495       11.00409    
  6.3927902E-04  6.7205500E-04   56.47088       11.97666    
  6.7205500E-04  7.0651202E-04   66.21340       13.38450    
  7.0651202E-04  7.4273598E-04   48.62885       10.20055    
  7.4273598E-04  7.8081700E-04   48.93194       8.613089    
  7.8081700E-04  8.2085002E-04   41.86858       14.63836    
  8.2085002E-04  8.6293602E-04   32.15170       6.980518    
  8.6293602E-04  9.0717903E-04   31.48367       12.22896    
  9.0717903E-04  9.5369201E-04   35.66673       4.932605    
  9.5369201E-04  9.6163998E-04   34.34795       24.53412    
  9.6163998E-04  9.7783399E-04   33.02739       4.308716    
  9.7783399E-04  1.0025901E-03   28.90170       11.53495    
  1.0025901E-03  1.0539900E-03   24.99149       4.767086    
  1.0539900E-03  1.1080300E-03   27.86861       6.928983    
  1.1080300E-03  1.1648400E-03   18.45638       7.651724    
  1.1648400E-03  1.1943300E-03   22.85830       12.90236    
  1.1943300E-03  1.2245600E-03   21.15791       6.612248    
  1.2245600E-03  1.2873500E-03   19.96717       11.65537    
  1.2873500E-03  1.3533500E-03   19.33425       10.30640    
  1.3533500E-03  1.4227401E-03   20.96244       18.49464    
  1.4227401E-03  1.4956900E-03   24.22975       6.880036    
  1.4956900E-03  1.5335500E-03   26.34576       10.54453    
  1.5335500E-03  1.5723699E-03   22.31466       2.083894    
  1.5723699E-03  1.6121800E-03   24.26399       8.348477    
  1.6121800E-03  1.6529900E-03   24.42705       8.955898    
  1.6529900E-03  1.7377400E-03   22.33599       7.713239    
  1.7377400E-03  1.8268300E-03   20.24205       9.687662    
  1.8268300E-03  1.8730800E-03   23.62508       15.06909    
  1.8730800E-03  1.9205000E-03   19.38840       19.55446    
  1.9205000E-03  1.9691200E-03   19.98380       8.111759    
  1.9691200E-03  2.0189700E-03   20.06821       15.31653    
  2.0189700E-03  2.1224800E-03   18.08935       8.379130    
  2.1224800E-03  2.2313001E-03   16.36179       6.632907    
  2.2313001E-03  2.2688799E-03   20.41138       11.07184    
  2.2688799E-03  2.3068599E-03   18.90410       10.93127    
  2.3068599E-03  2.3457000E-03   17.06348       14.18204    
  2.3457000E-03  2.3652499E-03   27.69034       20.58180    
  2.3652499E-03  2.3852000E-03   21.71054       29.78710    
  2.3852000E-03  2.4251300E-03   13.46270       9.185814    
  2.4251300E-03  2.4659701E-03   16.17904       21.74171    
  2.4659701E-03  2.5923999E-03   16.55425       9.860246    
  2.5923999E-03  2.7253199E-03   15.16478       5.146229    
  2.7253199E-03  2.8650500E-03   14.07191       8.694084    
  2.8650500E-03  3.0119400E-03   13.49492       5.323899    
  3.0119400E-03  3.0881900E-03   11.88248       8.576811    
  3.0881900E-03  3.1663701E-03   12.70793       13.79352    
  3.1663701E-03  3.2465300E-03   10.67238       16.55888    
  3.2465300E-03  3.3287101E-03   9.815874       6.044107    
  3.3287101E-03  3.4993801E-03   11.79411       4.837109    
  3.4993801E-03  3.6787901E-03   10.17943       5.075278    
  3.6787901E-03  3.8674099E-03   10.17955       11.80088    
  3.8674099E-03  4.0656999E-03   9.956532       6.087149    
  4.0656999E-03  4.2741499E-03   9.856739       5.250792    
  4.2741499E-03  4.4932901E-03   9.055230       12.85388    
  4.4932901E-03  4.6070400E-03   8.221184       6.244335    
  4.6070400E-03  4.7236700E-03   8.970525       4.702698    
  4.7236700E-03  4.8432499E-03   8.072946       16.88780    
  4.8432499E-03  4.9658502E-03   8.536037       19.14303    
  4.9658502E-03  5.2204598E-03   7.369862       12.04011    
  5.2204598E-03  5.4881200E-03   6.936163       11.56081    
  5.4881200E-03  5.7695000E-03   7.126997       10.20677    
  5.7695000E-03  5.9155500E-03   6.714380       14.61439    
  5.9155500E-03  6.0653100E-03   4.859033       13.50503    
  6.0653100E-03  6.2188501E-03   6.905289       6.604742    
  6.2188501E-03  6.3762800E-03   6.463753       6.133498    
  6.3762800E-03  6.5377001E-03   6.459783       16.33939    
  6.5377001E-03  6.5923799E-03   5.255275       14.95322    
  6.5923799E-03  6.6475999E-03   6.130875       13.58200    
  6.6475999E-03  6.7031998E-03   5.215705       39.02613    
  6.7031998E-03  6.8728901E-03   5.469870       9.443864    
  6.8728901E-03  7.0468802E-03   6.029005       3.399027    
  7.0468802E-03  7.2252699E-03   6.841456       6.564943    
  7.2252699E-03  7.4081798E-03   4.718001       18.40728    
  7.4081798E-03  7.5957198E-03   4.521642       16.74769    
  7.5957198E-03  7.7880099E-03   5.399120       13.34118    
  7.7880099E-03  7.9851598E-03   3.684650       16.80903    
  7.9851598E-03  8.1873098E-03   4.261019       13.69394    
  8.1873098E-03  8.3945701E-03   3.494479       5.585934    
  8.3945701E-03  8.6070802E-03   3.578254       5.967686    
  8.6070802E-03  8.8249696E-03   3.763295       7.287958    
  8.8249696E-03  9.0483697E-03   4.469712       6.267951    
  9.0483697E-03  9.2774397E-03   3.667407       11.61396    
  9.2774397E-03  9.5122904E-03   3.262023       11.49108    
  9.5122904E-03  9.7530996E-03   3.297715       15.11965    
  9.7530996E-03  9.9999998E-03   3.766215       15.37911    
  9.9999998E-03  1.0253200E-02   3.738722       15.60338    
  1.0253200E-02  1.0512700E-02   3.735177       20.21387    
  1.0512700E-02  1.0778800E-02   2.681942       18.45429    
  1.0778800E-02  1.1051700E-02   3.237425       9.285711    
  1.1051700E-02  1.1331500E-02   2.654944       16.77688    
  1.1331500E-02  1.1618300E-02   2.724207       10.98425    
  1.1618300E-02  1.1912500E-02   2.404344       9.818914    
  1.1912500E-02  1.2214000E-02   2.111188       7.394963    
  1.2214000E-02  1.2523200E-02   2.545480       29.18103    
  1.2523200E-02  1.2840200E-02   2.360391       8.362330    
  1.2840200E-02  1.3165300E-02   1.979363       7.748557    
  1.3165300E-02  1.3498600E-02   2.226304       12.62311    
  1.3498600E-02  1.3840300E-02   2.419308       4.458534    
  1.3840300E-02  1.4190700E-02   1.963459       22.77485    
  1.4190700E-02  1.4549900E-02   2.010458       9.218139    
  1.4549900E-02  1.4918300E-02   2.518350       17.47098    
  1.4918300E-02  1.5295900E-02   1.793132       11.66426    
  1.5295900E-02  1.5683100E-02   1.540073       14.65635    
  1.5683100E-02  1.6080100E-02   1.749574       20.26669    
  1.6080100E-02  1.6487200E-02   1.890292       8.047509    
  1.6487200E-02  1.6904600E-02   1.999674       9.795426    
  1.6904600E-02  1.7332500E-02   2.099088       17.12779    
  1.7332500E-02  1.7771300E-02   1.607388       4.955650    
  1.7771300E-02  1.8221200E-02   1.655935       6.050535    
  1.8221200E-02  1.8682500E-02   1.662688       13.94717    
  1.8682500E-02  1.9155400E-02   1.354037       16.32570    
  1.9155400E-02  1.9640300E-02   1.382528       10.97745    
  1.9640300E-02  2.0000000E-02   1.415307       22.77965    
