 # Detector n:            1   HeIInflux 
 # N. of energy intervals         260
  1.0000100E-14  2.0000000E-13  5.3983769E+10   12.61866    
  2.0000000E-13  2.9297300E-13  9.5163498E+10   17.15077    
  2.9297300E-13  4.2916701E-13  1.4659145E+11   12.95978    
  4.2916701E-13  6.2867300E-13  1.8064181E+11   8.837626    
  6.2867300E-13  9.2092198E-13  2.5029447E+11   3.022959    
  9.2092198E-13  1.3490300E-12  3.6482000E+11   1.933681    
  1.3490300E-12  1.9761499E-12  4.9019712E+11   4.171982    
  1.9761499E-12  2.8947901E-12  6.2059394E+11   3.147893    
  2.8947901E-12  4.2404799E-12  7.5390144E+11   1.823726    
  4.2404799E-12  6.2117499E-12  8.7541508E+11   2.313048    
  6.2117499E-12  9.0993801E-12  8.9765583E+11  0.9403405    
  9.0993801E-12  1.3329400E-11  8.1110224E+11  0.7488122    
  1.3329400E-11  1.9525799E-11  6.2764784E+11  0.9541829    
  1.9525799E-11  2.8602700E-11  3.8645747E+11   1.078037    
  2.8602700E-11  4.1899099E-11  1.8846695E+11  0.1856911    
  4.1899099E-11  6.1376598E-11  7.8533542E+10  0.5397252    
  6.1376598E-11  8.9908601E-11  3.1309431E+10   1.442461    
  8.9908601E-11  1.3170399E-10  1.1629156E+10   1.259287    
  1.3170399E-10  1.9292901E-10  4.5712978E+09   1.605658    
  1.9292901E-10  2.8261499E-10  2.2944097E+09   1.758650    
  2.8261499E-10  4.1399401E-10  1.3678495E+09  0.9866599    
  4.1399401E-10  5.3157900E-10  9.5435539E+08  0.6143575    
  5.3157900E-10  6.2506200E-10  7.6474662E+08   1.204204    
  6.2506200E-10  6.8256001E-10  6.6338701E+08   1.218201    
  6.8256001E-10  8.3368101E-10  5.4995603E+08  0.4841599    
  8.3368101E-10  8.7642499E-10  5.0038307E+08   4.039739    
  8.7642499E-10  1.1253500E-09  4.1953226E+08   1.830279    
  1.1253500E-09  1.4449800E-09  3.1425888E+08  0.8095230    
  1.4449800E-09  1.8553900E-09  2.3943877E+08   1.794471    
  1.8553900E-09  2.3823701E-09  1.8325632E+08   1.561136    
  2.3823701E-09  3.0590199E-09  1.4425256E+08   2.341283    
  3.0590199E-09  3.9278598E-09  1.1051975E+08   1.342418    
  3.9278598E-09  5.0434799E-09  8.3419024E+07  0.8771014    
  5.0434799E-09  6.4759500E-09  6.4669976E+07   1.303400    
  6.4759500E-09  8.3152898E-09  5.0024752E+07  0.5104919    
  8.3152898E-09  1.0677000E-08  3.8205196E+07  0.4188152    
  1.0677000E-08  1.3709600E-08  2.9570264E+07  0.6635630    
  1.3709600E-08  1.7603501E-08  2.2438362E+07   1.215066    
  1.7603501E-08  2.2603301E-08  1.7474188E+07   1.447041    
  2.2603301E-08  2.9023200E-08  1.3367360E+07  0.9205021    
  2.9023200E-08  3.7266499E-08  1.0370527E+07   1.630916    
  3.7266499E-08  4.7851199E-08   7910136.       1.693365    
  4.7851199E-08  6.1442101E-08   5925417.      0.6391046    
  6.1442101E-08  7.8893301E-08   4547172.       1.266796    
  7.8893301E-08  1.0130100E-07   3464774.      0.8880849    
  1.0130100E-07  1.3007300E-07   2595116.       1.909045    
  1.3007300E-07  1.6701701E-07   1995045.       1.324315    
  1.6701701E-07  2.1445400E-07   1523349.       1.744287    
  2.1445400E-07  2.7536399E-07   1143969.      0.7762041    
  2.7536399E-07  3.5357499E-07   883847.7      0.9294136    
  3.5357499E-07  4.5399901E-07   655450.9      0.7603766    
  4.5399901E-07  5.8294700E-07   487275.7      0.9139055    
  5.8294700E-07  7.4851800E-07   376898.1       2.113909    
  7.4851800E-07  9.6111603E-07   280381.6       2.152687    
  9.6111603E-07  1.2341000E-06   218236.8       1.160344    
  1.2341000E-06  1.3638900E-06   180541.4       3.030351    
  1.3638900E-06  1.5073300E-06   156084.3       2.813728    
  1.5073300E-06  1.5846100E-06   133208.7       3.282082    
  1.5846100E-06  1.6658601E-06   136566.0       1.989867    
  1.6658601E-06  1.8410600E-06   128121.4       1.690931    
  1.8410600E-06  2.0346799E-06   107831.7       1.742729    
  2.0346799E-06  2.2486699E-06   99259.66       3.488567    
  2.2486699E-06  2.4851699E-06   86048.02       1.565288    
  2.4851699E-06  2.6125899E-06   80022.34       2.126747    
  2.6125899E-06  2.7465401E-06   69837.38       3.637598    
  2.7465401E-06  2.8634900E-06   73530.51       4.030500    
  2.8634900E-06  3.0353899E-06   70996.58       5.958196    
  3.0353899E-06  3.3546301E-06   62702.15       3.231852    
  3.3546301E-06  3.7074401E-06   53629.91       2.892420    
  3.7074401E-06  4.0973500E-06   47809.95       2.123116    
  4.0973500E-06  4.3074201E-06   47197.34       3.738992    
  4.3074201E-06  4.5282700E-06   43964.27       3.133756    
  4.5282700E-06  5.0045101E-06   37245.71       3.055111    
  5.0045101E-06  5.5308401E-06   36765.81       2.764302    
  5.5308401E-06  6.2672698E-06   25382.79       2.954230    
  6.2672698E-06  7.1017398E-06   25807.04       3.714333    
  7.1017398E-06  8.0473301E-06   21961.98       2.072772    
  8.0473301E-06  9.1188203E-06   18921.00       1.617331    
  9.1188203E-06  1.0333000E-05   16681.83       1.900514    
  1.0333000E-05  1.1708800E-05   13324.21       1.361648    
  1.1708800E-05  1.3267800E-05   11233.97       4.883743    
  1.3267800E-05  1.5034400E-05   9872.288       1.569333    
  1.5034400E-05  1.7036200E-05   8960.989       2.095577    
  1.7036200E-05  1.9304500E-05   7442.940       1.381194    
  1.9304500E-05  2.1334799E-05   6386.480       2.035684    
  2.1334799E-05  2.1874899E-05   5920.587       10.45378    
  2.1874899E-05  2.3578599E-05   5401.486       3.008168    
  2.3578599E-05  2.4175501E-05   5156.410       6.844175    
  2.4175501E-05  2.4787500E-05   5477.941       6.888019    
  2.4787500E-05  2.6058400E-05   4942.712       4.038125    
  2.6058400E-05  2.8087899E-05   4574.814       4.539698    
  2.8087899E-05  3.1827800E-05   4789.878       2.383544    
  3.1827800E-05  3.4306700E-05   3267.792       1.596875    
  3.4306700E-05  3.5175199E-05   1696.201       4.025089    
  3.5175199E-05  3.6065601E-05   1417.027       7.994130    
  3.6065601E-05  4.0867701E-05   2126.814       5.101954    
  4.0867701E-05  4.6309200E-05   2106.338       5.485933    
  4.6309200E-05  5.2475199E-05   2055.677       5.609597    
  5.2475199E-05  5.6562199E-05   1684.565       2.652501    
  5.6562199E-05  5.9462200E-05   1561.157       5.739467    
  5.9462200E-05  6.2510902E-05   1574.076       4.903660    
  6.2510902E-05  6.7379500E-05   1596.393       2.862961    
  6.7379500E-05  7.6350902E-05   1470.392       3.750635    
  7.6350902E-05  8.6516899E-05   1056.912       5.690063    
  8.6516899E-05  9.8036500E-05   582.4042       2.827636    
  9.8036500E-05  1.1109000E-04   732.1489       3.765379    
  1.1109000E-04  1.1678600E-04   714.9603       5.535483    
  1.1678600E-04  1.2277300E-04   556.6998       7.897772    
  1.2277300E-04  1.2906799E-04   748.6046       3.616217    
  1.2906799E-04  1.3568600E-04   685.3134       4.656765    
  1.3568600E-04  1.4264201E-04   549.3217       6.171587    
  1.4264201E-04  1.4995600E-04   381.0110       4.483434    
  1.4995600E-04  1.5764400E-04   411.9360       5.757920    
  1.5764400E-04  1.6163501E-04   304.0564       5.003541    
  1.6163501E-04  1.6572700E-04   398.4748       11.49346    
  1.6572700E-04  1.6992200E-04   391.2407       7.418775    
  1.6992200E-04  1.7422400E-04   454.9059       2.948044    
  1.7422400E-04  1.8315599E-04   381.9374       13.45556    
  1.8315599E-04  1.9254700E-04   368.0468       11.47683    
  1.9254700E-04  2.0241900E-04   323.7213       12.18069    
  2.0241900E-04  2.1279699E-04   249.6908       4.353170    
  2.1279699E-04  2.2370800E-04   262.0558       4.382067    
  2.2370800E-04  2.3517800E-04   273.4381       2.237210    
  2.3517800E-04  2.4723500E-04   241.5615       2.702606    
  2.4723500E-04  2.5991100E-04   287.1339       1.255993    
  2.5991100E-04  2.7323700E-04   307.9093       3.347295    
  2.7323700E-04  2.8015400E-04   227.4150       11.32652    
  2.8015400E-04  2.8724599E-04   225.0652       14.68406    
  2.8724599E-04  2.9451799E-04   195.4896       10.89730    
  2.9451799E-04  3.0197401E-04   234.7343       6.424233    
  3.0197401E-04  3.0961799E-04   208.5184       5.145105    
  3.0961799E-04  3.1745600E-04   205.3415       9.493688    
  3.1745600E-04  3.3373301E-04   192.8067       10.03877    
  3.3373301E-04  3.5084400E-04   182.5699       5.191744    
  3.5084400E-04  3.6883200E-04   176.1638       3.226084    
  3.6883200E-04  3.8774201E-04   161.7054       3.205195    
  3.8774201E-04  4.0762199E-04   154.0158       6.131973    
  4.0762199E-04  4.2852099E-04   131.1104       3.873170    
  4.2852099E-04  4.5049199E-04   135.2575       6.899712    
  4.5049199E-04  4.7358900E-04   117.9467       4.868440    
  4.7358900E-04  4.9787102E-04   100.6647       13.32329    
  4.9787102E-04  5.1047403E-04   124.0655       4.566561    
  5.1047403E-04  5.2339700E-04   92.86967       11.27626    
  5.2339700E-04  5.3664698E-04   99.11835       12.87592    
  5.3664698E-04  5.5023201E-04   112.8155       14.80664    
  5.5023201E-04  5.7844300E-04   88.18694       8.777891    
  5.7844300E-04  6.0810102E-04   84.35042       10.55302    
  6.0810102E-04  6.3927902E-04   73.43188       6.605974    
  6.3927902E-04  6.7205500E-04   73.48714       9.814493    
  6.7205500E-04  7.0651202E-04   69.97020       7.985493    
  7.0651202E-04  7.4273598E-04   48.80049       6.485101    
  7.4273598E-04  7.8081700E-04   58.42704       7.322225    
  7.8081700E-04  8.2085002E-04   45.90116       4.030964    
  8.2085002E-04  8.6293602E-04   44.52740       5.475369    
  8.6293602E-04  9.0717903E-04   41.00845       1.721557    
  9.0717903E-04  9.5369201E-04   34.70340       9.421450    
  9.5369201E-04  9.6163998E-04   33.40219       23.16157    
  9.6163998E-04  9.7783399E-04   30.96091       9.321964    
  9.7783399E-04  1.0025901E-03   41.95177       10.38228    
  1.0025901E-03  1.0539900E-03   33.66133       7.396064    
  1.0539900E-03  1.1080300E-03   30.82239       5.079690    
  1.1080300E-03  1.1648400E-03   26.79689       13.34580    
  1.1648400E-03  1.1943300E-03   27.67608       7.668570    
  1.1943300E-03  1.2245600E-03   24.74206       7.004769    
  1.2245600E-03  1.2873500E-03   29.05481       6.034600    
  1.2873500E-03  1.3533500E-03   29.59280       4.050348    
  1.3533500E-03  1.4227401E-03   26.76377       10.47690    
  1.4227401E-03  1.4956900E-03   26.64773       6.048869    
  1.4956900E-03  1.5335500E-03   27.88609       7.346562    
  1.5335500E-03  1.5723699E-03   29.77418       12.03704    
  1.5723699E-03  1.6121800E-03   25.03974       5.553753    
  1.6121800E-03  1.6529900E-03   19.21291       3.959810    
  1.6529900E-03  1.7377400E-03   26.68184       3.723740    
  1.7377400E-03  1.8268300E-03   26.21794       8.860246    
  1.8268300E-03  1.8730800E-03   26.68902       11.13662    
  1.8730800E-03  1.9205000E-03   26.89474       7.923176    
  1.9205000E-03  1.9691200E-03   30.12994       6.396481    
  1.9691200E-03  2.0189700E-03   24.38404       17.41855    
  2.0189700E-03  2.1224800E-03   23.77325       6.438679    
  2.1224800E-03  2.2313001E-03   21.33087       1.279780    
  2.2313001E-03  2.2688799E-03   21.41366       11.96924    
  2.2688799E-03  2.3068599E-03   22.54864       9.304692    
  2.3068599E-03  2.3457000E-03   25.06990       14.56548    
  2.3457000E-03  2.3652499E-03   21.75949       12.49824    
  2.3652499E-03  2.3852000E-03   25.68483       10.16049    
  2.3852000E-03  2.4251300E-03   28.58995       21.63184    
  2.4251300E-03  2.4659701E-03   20.14038       4.761534    
  2.4659701E-03  2.5923999E-03   19.85826       10.57071    
  2.5923999E-03  2.7253199E-03   19.55809       3.451339    
  2.7253199E-03  2.8650500E-03   19.19532       5.557276    
  2.8650500E-03  3.0119400E-03   14.27872       5.532928    
  3.0119400E-03  3.0881900E-03   18.37970       9.902250    
  3.0881900E-03  3.1663701E-03   16.33977       16.13687    
  3.1663701E-03  3.2465300E-03   14.74676       10.30791    
  3.2465300E-03  3.3287101E-03   12.35511       8.495559    
  3.3287101E-03  3.4993801E-03   12.08584       4.411394    
  3.4993801E-03  3.6787901E-03   13.34137       2.988293    
  3.6787901E-03  3.8674099E-03   14.20636       12.50112    
  3.8674099E-03  4.0656999E-03   12.79391       7.036953    
  4.0656999E-03  4.2741499E-03   12.33450       6.213838    
  4.2741499E-03  4.4932901E-03   11.33821       4.587761    
  4.4932901E-03  4.6070400E-03   11.36962       4.111116    
  4.6070400E-03  4.7236700E-03   9.804320       11.14514    
  4.7236700E-03  4.8432499E-03   9.120781       19.59623    
  4.8432499E-03  4.9658502E-03   10.92679       6.340852    
  4.9658502E-03  5.2204598E-03   10.45427       6.975764    
  5.2204598E-03  5.4881200E-03   9.277575       3.503943    
  5.4881200E-03  5.7695000E-03   8.848943       3.130624    
  5.7695000E-03  5.9155500E-03   8.458669       12.40517    
  5.9155500E-03  6.0653100E-03   7.134988       14.39728    
  6.0653100E-03  6.2188501E-03   8.078577       15.63567    
  6.2188501E-03  6.3762800E-03   8.795083       6.659494    
  6.3762800E-03  6.5377001E-03   7.484175       17.39549    
  6.5377001E-03  6.5923799E-03   5.342513       10.92218    
  6.5923799E-03  6.6475999E-03   6.294633       28.57480    
  6.6475999E-03  6.7031998E-03   8.782538       6.048830    
  6.7031998E-03  6.8728901E-03   6.924200       7.167978    
  6.8728901E-03  7.0468802E-03   7.649827       6.978122    
  7.0468802E-03  7.2252699E-03   7.104472       2.780801    
  7.2252699E-03  7.4081798E-03   5.665073       7.400043    
  7.4081798E-03  7.5957198E-03   6.636013       6.858441    
  7.5957198E-03  7.7880099E-03   5.046969       4.266147    
  7.7880099E-03  7.9851598E-03   5.155217       11.12863    
  7.9851598E-03  8.1873098E-03   5.183883       21.55467    
  8.1873098E-03  8.3945701E-03   4.579370       19.57142    
  8.3945701E-03  8.6070802E-03   5.148269       12.86076    
  8.6070802E-03  8.8249696E-03   4.681512       6.037784    
  8.8249696E-03  9.0483697E-03   4.172004       11.51489    
  9.0483697E-03  9.2774397E-03   4.054236       13.57211    
  9.2774397E-03  9.5122904E-03   3.709167       17.38513    
  9.5122904E-03  9.7530996E-03   3.977124       8.585663    
  9.7530996E-03  9.9999998E-03   3.989329       12.86597    
  9.9999998E-03  1.0253200E-02   4.601765       5.013014    
  1.0253200E-02  1.0512700E-02   3.894444       8.860632    
  1.0512700E-02  1.0778800E-02   3.098924       10.44269    
  1.0778800E-02  1.1051700E-02   4.100856       7.801877    
  1.1051700E-02  1.1331500E-02   2.939978       14.04701    
  1.1331500E-02  1.1618300E-02   3.374085       7.604835    
  1.1618300E-02  1.1912500E-02   3.232838       7.100789    
  1.1912500E-02  1.2214000E-02   3.015717       6.470364    
  1.2214000E-02  1.2523200E-02   3.003422       7.859316    
  1.2523200E-02  1.2840200E-02   2.856960       16.16876    
  1.2840200E-02  1.3165300E-02   2.696207       10.87402    
  1.3165300E-02  1.3498600E-02   2.913746       29.45360    
  1.3498600E-02  1.3840300E-02   2.820899       13.17105    
  1.3840300E-02  1.4190700E-02   2.531102       16.14845    
  1.4190700E-02  1.4549900E-02   2.348044       9.754227    
  1.4549900E-02  1.4918300E-02   2.167108       10.07045    
  1.4918300E-02  1.5295900E-02   2.602883       11.19826    
  1.5295900E-02  1.5683100E-02   2.299860       10.57444    
  1.5683100E-02  1.6080100E-02   2.628559       12.86420    
  1.6080100E-02  1.6487200E-02   2.148721       11.68350    
  1.6487200E-02  1.6904600E-02   1.810213       14.29304    
  1.6904600E-02  1.7332500E-02   2.662606       12.61029    
  1.7332500E-02  1.7771300E-02   2.137722       4.661897    
  1.7771300E-02  1.8221200E-02   2.053647       10.02327    
  1.8221200E-02  1.8682500E-02   2.013083       11.35748    
  1.8682500E-02  1.9155400E-02   2.130599       9.852743    
  1.9155400E-02  1.9640300E-02   1.792747       12.71498    
  1.9640300E-02  2.0000000E-02   1.725627       15.54496    
