 # Detector n:  1  HeIInflux 
 # N. of energy intervals 260
  1.0000100E-14  2.0000000E-13  1.2906820E+10   30.17035    
  2.0000000E-13  2.9297300E-13  3.3739829E+10   21.50997    
  2.9297300E-13  4.2916701E-13  6.3745130E+10   17.41146    
  4.2916701E-13  6.2867300E-13  7.0649242E+10   11.79603    
  6.2867300E-13  9.2092198E-13  7.0065529E+10   9.667210    
  9.2092198E-13  1.3490300E-12  1.2876559E+11   7.200272    
  1.3490300E-12  1.9761499E-12  1.5675249E+11   5.118438    
  1.9761499E-12  2.8947901E-12  2.3324759E+11   2.628772    
  2.8947901E-12  4.2404799E-12  2.7087371E+11   1.701718    
  4.2404799E-12  6.2117499E-12  3.0325781E+11   1.859280    
  6.2117499E-12  9.0993801E-12  3.1854523E+11   1.282601    
  9.0993801E-12  1.3329400E-11  2.9362212E+11   1.759962    
  1.3329400E-11  1.9525799E-11  2.2894073E+11   1.201652    
  1.9525799E-11  2.8602700E-11  1.3900225E+11   1.711582    
  2.8602700E-11  4.1899099E-11  6.5691615E+10   1.515853    
  4.1899099E-11  6.1376598E-11  2.7787485E+10   1.615026    
  6.1376598E-11  8.9908601E-11  1.2894251E+10   1.615331    
  8.9908601E-11  1.3170399E-10  6.6898949E+09   1.299347    
  1.3170399E-10  1.9292901E-10  4.0003359E+09   1.045241    
  1.9292901E-10  2.8261499E-10  2.5382042E+09   1.104210    
  2.8261499E-10  4.1399401E-10  1.6955474E+09   1.146658    
  4.1399401E-10  5.3157900E-10  1.2498534E+09   1.202914    
  5.3157900E-10  6.2506200E-10  1.0227289E+09   1.662551    
  6.2506200E-10  6.8256001E-10  8.9942650E+08   2.311963    
  6.8256001E-10  8.3368101E-10  7.5638170E+08   1.239976    
  8.3368101E-10  8.7642499E-10  6.7065286E+08   1.623560    
  8.7642499E-10  1.1253500E-09  5.8995878E+08   1.063729    
  1.1253500E-09  1.4449800E-09  4.5849238E+08  0.7782792    
  1.4449800E-09  1.8553900E-09  3.5785328E+08   1.060049    
  1.8553900E-09  2.3823701E-09  2.8201805E+08   1.063260    
  2.3823701E-09  3.0590199E-09  2.2453912E+08   1.035892    
  3.0590199E-09  3.9278598E-09  1.6944642E+08   1.445818    
  3.9278598E-09  5.0434799E-09  1.3479131E+08   1.095084    
  5.0434799E-09  6.4759500E-09  1.0429872E+08   1.087688    
  6.4759500E-09  8.3152898E-09  8.1214624E+07   1.096529    
  8.3152898E-09  1.0677000E-08  6.4227744E+07  0.7042984    
  1.0677000E-08  1.3709600E-08  4.9824884E+07   1.260841    
  1.3709600E-08  1.7603501E-08  3.9142644E+07   1.154999    
  1.7603501E-08  2.2603301E-08  3.0858528E+07   1.228499    
  2.2603301E-08  2.9023200E-08  2.4220792E+07   1.098458    
  2.9023200E-08  3.7266499E-08  1.8732506E+07   1.023335    
  3.7266499E-08  4.7851199E-08  1.4303145E+07   1.096529    
  4.7851199E-08  6.1442101E-08  1.1443622E+07   1.044904    
  6.1442101E-08  7.8893301E-08   9111300.      0.8347435    
  7.8893301E-08  1.0130100E-07   7057958.       1.085299    
  1.0130100E-07  1.3007300E-07   5544830.      0.9744460    
  1.3007300E-07  1.6701701E-07   4305566.      0.8074768    
  1.6701701E-07  2.1445400E-07   3369105.       1.408719    
  2.1445400E-07  2.7536399E-07   2613377.      0.7842354    
  2.7536399E-07  3.5357499E-07   2016055.       1.269444    
  3.5357499E-07  4.5399901E-07   1559706.      0.7834738    
  4.5399901E-07  5.8294700E-07   1199225.      0.9799911    
  5.8294700E-07  7.4851800E-07   943731.8      0.7385926    
  7.4851800E-07  9.6111603E-07   723254.4       1.140054    
  9.6111603E-07  1.2341000E-06   567893.3      0.8288168    
  1.2341000E-06  1.3638900E-06   470298.8       1.659790    
  1.3638900E-06  1.5073300E-06   429707.2       1.626501    
  1.5073300E-06  1.5846100E-06   397087.7       1.954409    
  1.5846100E-06  1.6658601E-06   367206.3       1.981732    
  1.6658601E-06  1.8410600E-06   346804.7       1.444394    
  1.8410600E-06  2.0346799E-06   306316.5       1.470380    
  2.0346799E-06  2.2486699E-06   286525.6       1.668570    
  2.2486699E-06  2.4851699E-06   248757.3       1.326059    
  2.4851699E-06  2.6125899E-06   240741.4       1.841565    
  2.6125899E-06  2.7465401E-06   218793.8       1.327091    
  2.7465401E-06  2.8634900E-06   205455.5       1.818406    
  2.8634900E-06  3.0353899E-06   196413.2       2.206981    
  3.0353899E-06  3.3546301E-06   181701.5       1.474500    
  3.3546301E-06  3.7074401E-06   167074.4       1.028349    
  3.7074401E-06  4.0973500E-06   153827.2       1.230416    
  4.0973500E-06  4.3074201E-06   138068.0       1.626736    
  4.3074201E-06  4.5282700E-06   123746.1       2.604172    
  4.5282700E-06  5.0045101E-06   120005.5       1.931045    
  5.0045101E-06  5.5308401E-06   120041.3       1.828613    
  5.5308401E-06  6.2672698E-06   83106.66       1.718626    
  6.2672698E-06  7.1017398E-06   84766.70       1.489576    
  7.1017398E-06  8.0473301E-06   72765.99       1.235892    
  8.0473301E-06  9.1188203E-06   63505.25       1.365477    
  9.1188203E-06  1.0333000E-05   55613.74       1.352017    
  1.0333000E-05  1.1708800E-05   47420.74       2.129453    
  1.1708800E-05  1.3267800E-05   41987.23       1.731953    
  1.3267800E-05  1.5034400E-05   36289.18       1.462462    
  1.5034400E-05  1.7036200E-05   31948.52       1.111618    
  1.7036200E-05  1.9304500E-05   27306.18       1.837909    
  1.9304500E-05  2.1334799E-05   23686.22       2.208148    
  2.1334799E-05  2.1874899E-05   21535.18       2.591240    
  2.1874899E-05  2.3578599E-05   21675.27       1.165189    
  2.3578599E-05  2.4175501E-05   19416.36       3.367467    
  2.4175501E-05  2.4787500E-05   19631.91       3.767215    
  2.4787500E-05  2.6058400E-05   18802.49       2.652971    
  2.6058400E-05  2.8087899E-05   18245.80       3.053129    
  2.8087899E-05  3.1827800E-05   19834.32       1.266909    
  3.1827800E-05  3.4306700E-05   13543.82       2.017010    
  3.4306700E-05  3.5175199E-05   6698.089       5.811330    
  3.5175199E-05  3.6065601E-05   6332.947       4.484845    
  3.6065601E-05  4.0867701E-05   8173.802       1.617030    
  4.0867701E-05  4.6309200E-05   8841.903       1.623666    
  4.6309200E-05  5.2475199E-05   7958.540       1.750053    
  5.2475199E-05  5.6562199E-05   7228.231       2.385214    
  5.6562199E-05  5.9462200E-05   6825.701       2.911428    
  5.9462200E-05  6.2510902E-05   6609.020       2.745991    
  6.2510902E-05  6.7379500E-05   6462.475       1.753206    
  6.7379500E-05  7.6350902E-05   6121.897       1.737916    
  7.6350902E-05  8.6516899E-05   4440.011       1.790455    
  8.6516899E-05  9.8036500E-05   2731.419       2.288986    
  9.8036500E-05  1.1109000E-04   3107.481       1.926851    
  1.1109000E-04  1.1678600E-04   2931.788       3.213779    
  1.1678600E-04  1.2277300E-04   2093.113       2.618460    
  1.2277300E-04  1.2906799E-04   3134.608       3.408177    
  1.2906799E-04  1.3568600E-04   3020.706       2.693639    
  1.3568600E-04  1.4264201E-04   2318.265       3.915863    
  1.4264201E-04  1.4995600E-04   1707.621       3.134723    
  1.4995600E-04  1.5764400E-04   1593.480       3.555999    
  1.5764400E-04  1.6163501E-04   1191.465       3.812904    
  1.6163501E-04  1.6572700E-04   1545.076       4.620236    
  1.6572700E-04  1.6992200E-04   1627.649       3.546586    
  1.6992200E-04  1.7422400E-04   1716.893       3.772212    
  1.7422400E-04  1.8315599E-04   1671.802       3.024233    
  1.8315599E-04  1.9254700E-04   1637.495       2.528790    
  1.9254700E-04  2.0241900E-04   1484.766       3.553224    
  2.0241900E-04  2.1279699E-04   1133.623       1.846283    
  2.1279699E-04  2.2370800E-04   1183.492       2.645769    
  2.2370800E-04  2.3517800E-04   1215.237       2.022196    
  2.3517800E-04  2.4723500E-04   1120.393       2.469370    
  2.4723500E-04  2.5991100E-04   1124.059       3.348447    
  2.5991100E-04  2.7323700E-04   1108.476       1.703058    
  2.7323700E-04  2.8015400E-04   972.1761       3.060945    
  2.8015400E-04  2.8724599E-04   786.0020       4.502149    
  2.8724599E-04  2.9451799E-04   774.3679       4.256116    
  2.9451799E-04  3.0197401E-04   790.2271       4.838903    
  3.0197401E-04  3.0961799E-04   765.0776       2.855422    
  3.0961799E-04  3.1745600E-04   728.5098       5.842782    
  3.1745600E-04  3.3373301E-04   781.4465       3.479454    
  3.3373301E-04  3.5084400E-04   722.8037       3.555039    
  3.5084400E-04  3.6883200E-04   632.8904       3.313742    
  3.6883200E-04  3.8774201E-04   553.8702       3.772727    
  3.8774201E-04  4.0762199E-04   605.6656       2.938981    
  4.0762199E-04  4.2852099E-04   477.5823       3.777012    
  4.2852099E-04  4.5049199E-04   460.4612       4.818019    
  4.5049199E-04  4.7358900E-04   416.4341       3.411851    
  4.7358900E-04  4.9787102E-04   423.0230       2.312366    
  4.9787102E-04  5.1047403E-04   426.0291       4.653054    
  5.1047403E-04  5.2339700E-04   406.5413       3.995484    
  5.2339700E-04  5.3664698E-04   307.9546       7.573585    
  5.3664698E-04  5.5023201E-04   345.3567       5.287291    
  5.5023201E-04  5.7844300E-04   319.9972       3.902021    
  5.7844300E-04  6.0810102E-04   311.5413       3.811478    
  6.0810102E-04  6.3927902E-04   256.8974       3.255489    
  6.3927902E-04  6.7205500E-04   235.6049       4.342890    
  6.7205500E-04  7.0651202E-04   228.8574       4.046483    
  7.0651202E-04  7.4273598E-04   206.8714       4.827966    
  7.4273598E-04  7.8081700E-04   176.6925       4.675071    
  7.8081700E-04  8.2085002E-04   142.1126       5.173250    
  8.2085002E-04  8.6293602E-04   143.1609       4.629508    
  8.6293602E-04  9.0717903E-04   137.0013       4.513093    
  9.0717903E-04  9.5369201E-04   113.0764       4.365820    
  9.5369201E-04  9.6163998E-04   99.61464       13.72697    
  9.6163998E-04  9.7783399E-04   124.5288       7.805335    
  9.7783399E-04  1.0025901E-03   103.5320       6.267488    
  1.0025901E-03  1.0539900E-03   94.61255       3.357721    
  1.0539900E-03  1.1080300E-03   90.75139       4.912347    
  1.1080300E-03  1.1648400E-03   77.01791       4.243612    
  1.1648400E-03  1.1943300E-03   78.80211       4.763878    
  1.1943300E-03  1.2245600E-03   75.74857       6.766295    
  1.2245600E-03  1.2873500E-03   71.67036       3.556902    
  1.2873500E-03  1.3533500E-03   63.99825       5.269266    
  1.3533500E-03  1.4227401E-03   64.83210       5.243134    
  1.4227401E-03  1.4956900E-03   56.05767       4.938607    
  1.4956900E-03  1.5335500E-03   54.40166       6.805696    
  1.5335500E-03  1.5723699E-03   61.49058       6.975633    
  1.5723699E-03  1.6121800E-03   53.26203       3.896441    
  1.6121800E-03  1.6529900E-03   54.16654       7.517334    
  1.6529900E-03  1.7377400E-03   53.09377       2.216848    
  1.7377400E-03  1.8268300E-03   44.93263       5.429662    
  1.8268300E-03  1.8730800E-03   48.94992       6.197592    
  1.8730800E-03  1.9205000E-03   39.23544       7.882039    
  1.9205000E-03  1.9691200E-03   37.00730       7.979367    
  1.9691200E-03  2.0189700E-03   40.28118       5.244809    
  2.0189700E-03  2.1224800E-03   34.95893       5.898516    
  2.1224800E-03  2.2313001E-03   35.10421       5.554176    
  2.2313001E-03  2.2688799E-03   29.56977       8.177871    
  2.2688799E-03  2.3068599E-03   31.98223       8.540453    
  2.3068599E-03  2.3457000E-03   35.09287       9.331776    
  2.3457000E-03  2.3652499E-03   31.37957       13.87490    
  2.3652499E-03  2.3852000E-03   37.32035       11.29314    
  2.3852000E-03  2.4251300E-03   30.23812       7.494964    
  2.4251300E-03  2.4659701E-03   31.45947       7.969244    
  2.4659701E-03  2.5923999E-03   26.04770       4.611833    
  2.5923999E-03  2.7253199E-03   22.97635       3.991202    
  2.7253199E-03  2.8650500E-03   21.45967       5.031675    
  2.8650500E-03  3.0119400E-03   18.33984       6.575776    
  3.0119400E-03  3.0881900E-03   17.50995       8.197637    
  3.0881900E-03  3.1663701E-03   14.84116       8.303770    
  3.1663701E-03  3.2465300E-03   14.55864       9.590339    
  3.2465300E-03  3.3287101E-03   15.18723       10.30330    
  3.3287101E-03  3.4993801E-03   13.33642       4.835157    
  3.4993801E-03  3.6787901E-03   13.31586       6.981660    
  3.6787901E-03  3.8674099E-03   10.79454       8.324636    
  3.8674099E-03  4.0656999E-03   11.49133       6.127289    
  4.0656999E-03  4.2741499E-03   10.43848       6.270887    
  4.2741499E-03  4.4932901E-03   7.794722       6.719350    
  4.4932901E-03  4.6070400E-03   7.664047       11.64523    
  4.6070400E-03  4.7236700E-03   8.518504       9.473180    
  4.7236700E-03  4.8432499E-03   7.083899       10.57789    
  4.8432499E-03  4.9658502E-03   8.256655       11.12119    
  4.9658502E-03  5.2204598E-03   7.167037       9.130936    
  5.2204598E-03  5.4881200E-03   6.574701       7.466412    
  5.4881200E-03  5.7695000E-03   6.863119       5.615177    
  5.7695000E-03  5.9155500E-03   6.446029       11.32578    
  5.9155500E-03  6.0653100E-03   6.474030       8.278594    
  6.0653100E-03  6.2188501E-03   6.727497       11.03070    
  6.2188501E-03  6.3762800E-03   5.548762       11.23571    
  6.3762800E-03  6.5377001E-03   4.570040       10.24881    
  6.5377001E-03  6.5923799E-03   2.891888       27.29906    
  6.5923799E-03  6.6475999E-03   3.823720       21.87849    
  6.6475999E-03  6.7031998E-03   2.727722       28.95300    
  6.7031998E-03  6.8728901E-03   5.507673       7.604321    
  6.8728901E-03  7.0468802E-03   5.169113       7.107345    
  7.0468802E-03  7.2252699E-03   4.695684       14.65124    
  7.2252699E-03  7.4081798E-03   3.541871       12.56493    
  7.4081798E-03  7.5957198E-03   3.723750       12.90735    
  7.5957198E-03  7.7880099E-03   4.574506       10.57452    
  7.7880099E-03  7.9851598E-03   3.648793       8.805148    
  7.9851598E-03  8.1873098E-03   3.367593       12.00114    
  8.1873098E-03  8.3945701E-03   3.320405       14.40299    
  8.3945701E-03  8.6070802E-03   3.757795       12.32732    
  8.6070802E-03  8.8249696E-03   2.524294       9.546986    
  8.8249696E-03  9.0483697E-03   2.791502       14.01167    
  9.0483697E-03  9.2774397E-03   2.955504       12.04989    
  9.2774397E-03  9.5122904E-03   2.750221       7.865119    
  9.5122904E-03  9.7530996E-03   2.591563       10.91300    
  9.7530996E-03  9.9999998E-03   2.722286       15.20249    
  9.9999998E-03  1.0253200E-02   2.573961       11.37356    
  1.0253200E-02  1.0512700E-02   2.321075       15.35073    
  1.0512700E-02  1.0778800E-02   2.447541       12.44814    
  1.0778800E-02  1.1051700E-02   2.189550       12.10073    
  1.1051700E-02  1.1331500E-02   2.536666       15.74746    
  1.1331500E-02  1.1618300E-02   2.499632       8.483615    
  1.1618300E-02  1.1912500E-02   2.219491       12.20953    
  1.1912500E-02  1.2214000E-02   2.325452       14.98453    
  1.2214000E-02  1.2523200E-02   1.925179       14.75104    
  1.2523200E-02  1.2840200E-02   1.960217       15.28773    
  1.2840200E-02  1.3165300E-02   1.783822       14.49481    
  1.3165300E-02  1.3498600E-02   1.716302       14.59678    
  1.3498600E-02  1.3840300E-02   1.592309       13.82447    
  1.3840300E-02  1.4190700E-02   1.917757       12.36276    
  1.4190700E-02  1.4549900E-02   1.642894       9.380878    
  1.4549900E-02  1.4918300E-02   1.706442       12.66540    
  1.4918300E-02  1.5295900E-02   1.552545       13.01447    
  1.5295900E-02  1.5683100E-02   1.750896       13.41921    
  1.5683100E-02  1.6080100E-02   1.815370       12.97068    
  1.6080100E-02  1.6487200E-02   1.717065       9.553110    
  1.6487200E-02  1.6904600E-02   1.541817       17.75003    
  1.6904600E-02  1.7332500E-02   1.451636       17.16374    
  1.7332500E-02  1.7771300E-02   1.207853       10.94629    
  1.7771300E-02  1.8221200E-02   1.175210       12.44799    
  1.8221200E-02  1.8682500E-02  0.8023866       21.07374    
  1.8682500E-02  1.9155400E-02   1.123906       15.77243    
  1.9155400E-02  1.9640300E-02  0.9578679       10.77219    
  1.9640300E-02  2.0000000E-02   1.143721       21.62224    
