 # Detector n:            1   HeIInflux 
 # N. of energy intervals         260
  1.0000100E-14  2.0000000E-13  9.7551954E+09   40.33603    
  2.0000000E-13  2.9297300E-13  2.9126396E+10   23.19070    
  2.9297300E-13  4.2916701E-13  5.3005652E+10   3.730919    
  4.2916701E-13  6.2867300E-13  7.1579058E+10   16.86086    
  6.2867300E-13  9.2092198E-13  1.0810974E+11   4.237134    
  9.2092198E-13  1.3490300E-12  1.4763015E+11   8.182181    
  1.3490300E-12  1.9761499E-12  1.9941055E+11   4.191672    
  1.9761499E-12  2.8947901E-12  2.5183792E+11   2.505453    
  2.8947901E-12  4.2404799E-12  2.9674924E+11   1.710440    
  4.2404799E-12  6.2117499E-12  3.5000340E+11   1.222425    
  6.2117499E-12  9.0993801E-12  3.6735736E+11   1.678486    
  9.0993801E-12  1.3329400E-11  3.2822103E+11   1.284080    
  1.3329400E-11  1.9525799E-11  2.5947916E+11  0.4760318    
  1.9525799E-11  2.8602700E-11  1.6061864E+11   1.912297    
  2.8602700E-11  4.1899099E-11  7.7918011E+10   2.589417    
  4.1899099E-11  6.1376598E-11  3.1494636E+10  0.4614277    
  6.1376598E-11  8.9908601E-11  1.3010457E+10   1.069743    
  8.9908601E-11  1.3170399E-10  4.2300086E+09   2.674306    
  1.3170399E-10  1.9292901E-10  1.4958413E+09   2.229076    
  1.9292901E-10  2.8261499E-10  7.0161862E+08   4.848818    
  2.8261499E-10  4.1399401E-10  4.2073773E+08   2.477373    
  4.1399401E-10  5.3157900E-10  2.9058480E+08   3.348105    
  5.3157900E-10  6.2506200E-10  2.3652918E+08   2.021010    
  6.2506200E-10  6.8256001E-10  2.1078418E+08   2.702368    
  6.8256001E-10  8.3368101E-10  1.6467464E+08   2.930654    
  8.3368101E-10  8.7642499E-10  1.4195738E+08   4.215685    
  8.7642499E-10  1.1253500E-09  1.1991019E+08   1.975935    
  1.1253500E-09  1.4449800E-09  9.2936304E+07  0.8618288    
  1.4449800E-09  1.8553900E-09  7.2886024E+07   3.062630    
  1.8553900E-09  2.3823701E-09  5.2588508E+07  0.9547452    
  2.3823701E-09  3.0590199E-09  4.0521416E+07   1.219467    
  3.0590199E-09  3.9278598E-09  2.9822124E+07  0.9084468    
  3.9278598E-09  5.0434799E-09  2.3634860E+07   2.529083    
  5.0434799E-09  6.4759500E-09  1.7627388E+07   3.239174    
  6.4759500E-09  8.3152898E-09  1.2997903E+07   3.283134    
  8.3152898E-09  1.0677000E-08   9990719.      0.8297641    
  1.0677000E-08  1.3709600E-08   7703744.       3.214325    
  1.3709600E-08  1.7603501E-08   5903179.       4.416491    
  1.7603501E-08  2.2603301E-08   4526176.       4.485295    
  2.2603301E-08  2.9023200E-08   3455902.       5.631822    
  2.9023200E-08  3.7266499E-08   2573314.       2.164994    
  3.7266499E-08  4.7851199E-08   1907217.       2.653664    
  4.7851199E-08  6.1442101E-08   1455583.      0.9975606    
  6.1442101E-08  7.8893301E-08   1123605.       4.355008    
  7.8893301E-08  1.0130100E-07   847536.4       1.283048    
  1.0130100E-07  1.3007300E-07   638060.8       2.196124    
  1.3007300E-07  1.6701701E-07   485751.3       1.524241    
  1.6701701E-07  2.1445400E-07   362317.0       1.149876    
  2.1445400E-07  2.7536399E-07   273407.5       3.351763    
  2.7536399E-07  3.5357499E-07   200757.3       3.223122    
  3.5357499E-07  4.5399901E-07   140378.8       6.892795    
  4.5399901E-07  5.8294700E-07   108080.9       4.380451    
  5.8294700E-07  7.4851800E-07   85075.62       2.296457    
  7.4851800E-07  9.6111603E-07   59876.90       2.800200    
  9.6111603E-07  1.2341000E-06   43291.65       1.312609    
  1.2341000E-06  1.3638900E-06   38495.93       4.831686    
  1.3638900E-06  1.5073300E-06   32555.60       7.182391    
  1.5073300E-06  1.5846100E-06   28061.89       5.689457    
  1.5846100E-06  1.6658601E-06   31412.97       9.973712    
  1.6658601E-06  1.8410600E-06   25745.55       4.001207    
  1.8410600E-06  2.0346799E-06   20445.06       8.792386    
  2.0346799E-06  2.2486699E-06   19514.39       3.861633    
  2.2486699E-06  2.4851699E-06   17130.33       4.682662    
  2.4851699E-06  2.6125899E-06   16758.94       4.752333    
  2.6125899E-06  2.7465401E-06   14545.38       11.55006    
  2.7465401E-06  2.8634900E-06   13148.25       8.005897    
  2.8634900E-06  3.0353899E-06   14429.08       8.341034    
  3.0353899E-06  3.3546301E-06   10535.31       6.878595    
  3.3546301E-06  3.7074401E-06   10659.44       5.673129    
  3.7074401E-06  4.0973500E-06   8970.516       9.199427    
  4.0973500E-06  4.3074201E-06   7719.624       7.670223    
  4.3074201E-06  4.5282700E-06   8000.911       6.321989    
  4.5282700E-06  5.0045101E-06   6548.458       4.218160    
  5.0045101E-06  5.5308401E-06   6259.127       6.713128    
  5.5308401E-06  6.2672698E-06   4460.810       5.648720    
  6.2672698E-06  7.1017398E-06   4582.689       7.343891    
  7.1017398E-06  8.0473301E-06   3444.212       8.425735    
  8.0473301E-06  9.1188203E-06   3066.683       6.998266    
  9.1188203E-06  1.0333000E-05   2696.742       2.466360    
  1.0333000E-05  1.1708800E-05   2077.645       7.418327    
  1.1708800E-05  1.3267800E-05   1652.240       5.146003    
  1.3267800E-05  1.5034400E-05   1595.043       5.111737    
  1.5034400E-05  1.7036200E-05   1387.158       10.65974    
  1.7036200E-05  1.9304500E-05   1184.166       4.649690    
  1.9304500E-05  2.1334799E-05   912.9187       7.342609    
  2.1334799E-05  2.1874899E-05   999.7072       23.89346    
  2.1874899E-05  2.3578599E-05   800.0488       10.53287    
  2.3578599E-05  2.4175501E-05   825.1564       14.57325    
  2.4175501E-05  2.4787500E-05   726.7516       17.37159    
  2.4787500E-05  2.6058400E-05   672.6159       17.14203    
  2.6058400E-05  2.8087899E-05   679.6161       5.042024    
  2.8087899E-05  3.1827800E-05   682.0302       9.434126    
  3.1827800E-05  3.4306700E-05   344.0998       11.97445    
  3.4306700E-05  3.5175199E-05   220.2383       35.87534    
  3.5175199E-05  3.6065601E-05   177.6070       53.57385    
  3.6065601E-05  4.0867701E-05   221.2519       5.954056    
  4.0867701E-05  4.6309200E-05   236.1942       12.91539    
  4.6309200E-05  5.2475199E-05   242.5397       7.034313    
  5.2475199E-05  5.6562199E-05   189.6983       7.737321    
  5.6562199E-05  5.9462200E-05   180.2690       16.14828    
  5.9462200E-05  6.2510902E-05   213.2737       11.19683    
  6.2510902E-05  6.7379500E-05   175.5170       11.45132    
  6.7379500E-05  7.6350902E-05   149.8977       8.245967    
  7.6350902E-05  8.6516899E-05   111.2534       3.304843    
  8.6516899E-05  9.8036500E-05   64.79611       17.19707    
  9.8036500E-05  1.1109000E-04   77.32236       8.200266    
  1.1109000E-04  1.1678600E-04   66.19785       19.60666    
  1.1678600E-04  1.2277300E-04   35.56074       25.37794    
  1.2277300E-04  1.2906799E-04   55.45588       28.35840    
  1.2906799E-04  1.3568600E-04   70.29295       12.22424    
  1.3568600E-04  1.4264201E-04   63.55212       4.243428    
  1.4264201E-04  1.4995600E-04   26.23565       16.77327    
  1.4995600E-04  1.5764400E-04   43.41755       17.23322    
  1.5764400E-04  1.6163501E-04   24.70307       51.29004    
  1.6163501E-04  1.6572700E-04   27.84202       44.42924    
  1.6572700E-04  1.6992200E-04   21.84432       23.49270    
  1.6992200E-04  1.7422400E-04   39.34775       15.58049    
  1.7422400E-04  1.8315599E-04   36.25753       17.99949    
  1.8315599E-04  1.9254700E-04   32.38010       14.55884    
  1.9254700E-04  2.0241900E-04   49.96328       23.09359    
  2.0241900E-04  2.1279699E-04   19.60906       27.43208    
  2.1279699E-04  2.2370800E-04   18.25066       10.80796    
  2.2370800E-04  2.3517800E-04   35.01696       18.14015    
  2.3517800E-04  2.4723500E-04   28.05302       14.16715    
  2.4723500E-04  2.5991100E-04   27.11650       19.48222    
  2.5991100E-04  2.7323700E-04   24.14433       32.25202    
  2.7323700E-04  2.8015400E-04   15.33337       38.67788    
  2.8015400E-04  2.8724599E-04   14.05592       16.77765    
  2.8724599E-04  2.9451799E-04   10.51013       55.12650    
  2.9451799E-04  3.0197401E-04   16.48420       38.40789    
  3.0197401E-04  3.0961799E-04   8.082070       35.00309    
  3.0961799E-04  3.1745600E-04   5.117178       37.68282    
  3.1745600E-04  3.3373301E-04   8.366891       46.91154    
  3.3373301E-04  3.5084400E-04   11.92179       28.66804    
  3.5084400E-04  3.6883200E-04   13.79121       16.59725    
  3.6883200E-04  3.8774201E-04   10.66356       17.14143    
  3.8774201E-04  4.0762199E-04   12.09683       20.99340    
  4.0762199E-04  4.2852099E-04   5.779526       15.10364    
  4.2852099E-04  4.5049199E-04   7.415492       5.033248    
  4.5049199E-04  4.7358900E-04   8.176663       15.58179    
  4.7358900E-04  4.9787102E-04   6.758222       23.60496    
  4.9787102E-04  5.1047403E-04   4.588330       74.42987    
  5.1047403E-04  5.2339700E-04   9.803512       23.25030    
  5.2339700E-04  5.3664698E-04   6.902768       31.44654    
  5.3664698E-04  5.5023201E-04   8.142056       35.02767    
  5.5023201E-04  5.7844300E-04   8.816549       35.63571    
  5.7844300E-04  6.0810102E-04   5.303783       28.83191    
  6.0810102E-04  6.3927902E-04   6.706219       21.65341    
  6.3927902E-04  6.7205500E-04   7.374345       36.89708    
  6.7205500E-04  7.0651202E-04   1.434005       21.63278    
  7.0651202E-04  7.4273598E-04   5.721861       15.49502    
  7.4273598E-04  7.8081700E-04   2.947343       20.65547    
  7.8081700E-04  8.2085002E-04   1.961247       43.07906    
  8.2085002E-04  8.6293602E-04   2.792112       28.23769    
  8.6293602E-04  9.0717903E-04   3.327006       39.02219    
  9.0717903E-04  9.5369201E-04   1.811950       34.76039    
  9.5369201E-04  9.6163998E-04  0.7575007       99.00000    
  9.6163998E-04  9.7783399E-04   2.455112       58.91875    
  9.7783399E-04  1.0025901E-03  0.4111019       99.00000    
  1.0025901E-03  1.0539900E-03  0.9676178       42.70623    
  1.0539900E-03  1.1080300E-03   2.238282       29.45019    
  1.1080300E-03  1.1648400E-03   1.161597       27.34641    
  1.1648400E-03  1.1943300E-03   1.183699       59.02625    
  1.1943300E-03  1.2245600E-03  0.8343480       38.61468    
  1.2245600E-03  1.2873500E-03  0.7743849       34.01835    
  1.2873500E-03  1.3533500E-03   1.340853       14.09232    
  1.3533500E-03  1.4227401E-03   1.485762       58.25518    
  1.4227401E-03  1.4956900E-03   1.011845       13.76421    
  1.4956900E-03  1.5335500E-03   1.885411       49.05840    
  1.5335500E-03  1.5723699E-03  0.9929771       63.83435    
  1.5723699E-03  1.6121800E-03   1.046626       41.64379    
  1.6121800E-03  1.6529900E-03  0.5625898       51.69590    
  1.6529900E-03  1.7377400E-03  0.7964280       50.30003    
  1.7377400E-03  1.8268300E-03   1.382769       17.75898    
  1.8268300E-03  1.8730800E-03   1.016425       34.58165    
  1.8730800E-03  1.9205000E-03  0.7428697       53.87105    
  1.9205000E-03  1.9691200E-03  0.6331947       40.59975    
  1.9691200E-03  2.0189700E-03  0.6489076       91.51472    
  2.0189700E-03  2.1224800E-03  0.3365304       34.38292    
  2.1224800E-03  2.2313001E-03  0.2353350       46.53708    
  2.2313001E-03  2.2688799E-03  0.2972867       99.00000    
  2.2688799E-03  2.3068599E-03   1.633548       46.54576    
  2.3068599E-03  2.3457000E-03   1.012241       33.76581    
  2.3457000E-03  2.3652499E-03  0.3714745       99.00000    
  2.3652499E-03  2.3852000E-03   0.000000       0.000000    
  2.3852000E-03  2.4251300E-03  0.7759907       38.39203    
  2.4251300E-03  2.4659701E-03  0.1522042       99.00000    
  2.4659701E-03  2.5923999E-03  0.5814306       40.25727    
  2.5923999E-03  2.7253199E-03  0.8785408       34.88668    
  2.7253199E-03  2.8650500E-03  0.4879640       34.06074    
  2.8650500E-03  3.0119400E-03  0.6876950       33.59162    
  3.0119400E-03  3.0881900E-03  0.6312516       34.29737    
  3.0881900E-03  3.1663701E-03  0.1910700       99.00000    
  3.1663701E-03  3.2465300E-03  0.8076018       36.02794    
  3.2465300E-03  3.3287101E-03  0.4747710       37.44971    
  3.3287101E-03  3.4993801E-03  0.6952823       35.05702    
  3.4993801E-03  3.6787901E-03  0.4926616       41.74778    
  3.6787901E-03  3.8674099E-03  0.6480876       18.74823    
  3.8674099E-03  4.0656999E-03  0.3555669       7.868144    
  4.0656999E-03  4.2741499E-03  0.3082555       43.30815    
  4.2741499E-03  4.4932901E-03  0.2270705       31.14075    
  4.4932901E-03  4.6070400E-03  0.4024418       49.83796    
  4.6070400E-03  4.7236700E-03  0.1865270       63.76001    
  4.7236700E-03  4.8432499E-03  0.3541817       59.45404    
  4.8432499E-03  4.9658502E-03  0.3091761       55.29718    
  4.9658502E-03  5.2204598E-03  0.1809499       48.30740    
  5.2204598E-03  5.4881200E-03  0.2086470       66.60649    
  5.4881200E-03  5.7695000E-03  0.3263091       34.73432    
  5.7695000E-03  5.9155500E-03  0.6031525       33.55422    
  5.9155500E-03  6.0653100E-03  0.4010364       56.79204    
  6.0653100E-03  6.2188501E-03  0.2487731       74.70817    
  6.2188501E-03  6.3762800E-03  0.1144089       87.75336    
  6.3762800E-03  6.5377001E-03  8.3048165E-02   96.55691    
  6.5377001E-03  6.5923799E-03  0.1472092       99.00000    
  6.5923799E-03  6.6475999E-03   0.000000       0.000000    
  6.6475999E-03  6.7031998E-03  0.1839404       99.00000    
  6.7031998E-03  6.8728901E-03  0.3120467       50.53920    
  6.8728901E-03  7.0468802E-03  0.3902999       46.65715    
  7.0468802E-03  7.2252699E-03  0.1892018       52.22374    
  7.2252699E-03  7.4081798E-03  0.1045872       42.36697    
  7.4081798E-03  7.5957198E-03  0.1647714       57.74343    
  7.5957198E-03  7.7880099E-03  9.4863862E-02   60.41369    
  7.7880099E-03  7.9851598E-03  0.1738095       36.38426    
  7.9851598E-03  8.1873098E-03  0.2402469       49.27012    
  8.1873098E-03  8.3945701E-03  0.2946889       44.78566    
  8.3945701E-03  8.6070802E-03  0.3601197       38.21743    
  8.6070802E-03  8.8249696E-03  0.1127048       60.38680    
  8.8249696E-03  9.0483697E-03  0.2583465       51.68701    
  9.0483697E-03  9.2774397E-03  0.1000150       59.95502    
  9.2774397E-03  9.5122904E-03  5.5797007E-02   99.00000    
  9.5122904E-03  9.7530996E-03  0.2089748       58.27792    
  9.7530996E-03  9.9999998E-03  9.3754992E-02   62.10352    
  9.9999998E-03  1.0253200E-02  0.1414937       36.99747    
  1.0253200E-02  1.0512700E-02  0.2577446       15.48414    
  1.0512700E-02  1.0778800E-02  8.3878487E-02   99.00000    
  1.0778800E-02  1.1051700E-02  0.1974101       32.92103    
  1.1051700E-02  1.1331500E-02  0.3119718       48.56229    
  1.1331500E-02  1.1618300E-02  6.7880593E-02   99.00000    
  1.1618300E-02  1.1912500E-02  0.1223332       50.43011    
  1.1912500E-02  1.2214000E-02  0.2111953       43.37784    
  1.2214000E-02  1.2523200E-02  0.1018790       54.70350    
  1.2523200E-02  1.2840200E-02  0.2447922       44.48234    
  1.2840200E-02  1.3165300E-02  4.8581310E-02   94.19782    
  1.3165300E-02  1.3498600E-02  7.1539231E-02   39.28783    
  1.3498600E-02  1.3840300E-02  0.1892865       34.24557    
  1.3840300E-02  1.4190700E-02  8.7884948E-02   99.00000    
  1.4190700E-02  1.4549900E-02  8.7210111E-02   99.00000    
  1.4549900E-02  1.4918300E-02  8.7883659E-02   70.43843    
  1.4918300E-02  1.5295900E-02  0.1271037       24.99173    
  1.5295900E-02  1.5683100E-02  7.3105276E-02   49.65168    
  1.5683100E-02  1.6080100E-02  9.4898328E-02   46.54085    
  1.6080100E-02  1.6487200E-02  0.1138789       46.40492    
  1.6487200E-02  1.6904600E-02  0.2992525       28.11960    
  1.6904600E-02  1.7332500E-02  0.1534275       60.77020    
  1.7332500E-02  1.7771300E-02  5.8327351E-02   49.66929    
  1.7771300E-02  1.8221200E-02  7.4497312E-02   58.90024    
  1.8221200E-02  1.8682500E-02  5.0698258E-02   76.45110    
  1.8682500E-02  1.9155400E-02  5.2052546E-02   99.00000    
  1.9155400E-02  1.9640300E-02  0.1116426       51.82281    
  1.9640300E-02  2.0000000E-02  3.4527075E-02   95.09705    
