 # Detector n:            1   HeIInflux 
 # N. of energy intervals         277
  1.0000100E-14  2.0000000E-13  1.3389249E+10   19.40292    
  2.0000000E-13  2.9297300E-13  2.1080044E+10   14.68788    
  2.9297300E-13  4.2916701E-13  3.2871578E+10   12.16034    
  4.2916701E-13  6.2867300E-13  5.1542024E+10   9.751638    
  6.2867300E-13  9.2092198E-13  6.6127409E+10   13.45210    
  9.2092198E-13  1.3490300E-12  9.9399614E+10   5.661314    
  1.3490300E-12  1.9761499E-12  1.6655273E+11   23.69397    
  1.9761499E-12  2.8947901E-12  1.5946467E+11   6.027575    
  2.8947901E-12  4.2404799E-12  1.9348495E+11   3.112286    
  4.2404799E-12  6.2117499E-12  2.1288942E+11   2.209961    
  6.2117499E-12  9.0993801E-12  2.2104229E+11   1.938506    
  9.0993801E-12  1.3329400E-11  2.0578083E+11   2.629857    
  1.3329400E-11  1.9525799E-11  1.5798875E+11   1.558697    
  1.9525799E-11  2.8602700E-11  1.0824521E+11   2.006612    
  2.8602700E-11  4.1899099E-11  5.6510976E+10   2.293200    
  4.1899099E-11  6.1376598E-11  2.8399487E+10   2.320263    
  6.1376598E-11  8.9908601E-11  1.2194864E+10   3.284157    
  8.9908601E-11  1.3170399E-10  4.4389325E+09   2.943198    
  1.3170399E-10  1.9292901E-10  1.4626080E+09   6.831743    
  1.9292901E-10  2.8261499E-10  4.5172333E+08   4.510806    
  2.8261499E-10  4.1399401E-10  2.1563430E+08   8.593623    
  4.1399401E-10  5.3157900E-10  1.4329917E+08   7.095603    
  5.3157900E-10  6.2506200E-10  1.0046110E+08   7.793819    
  6.2506200E-10  6.8256001E-10  9.5499448E+07   12.13659    
  6.8256001E-10  8.3368101E-10  7.8906824E+07   6.407971    
  8.3368101E-10  8.7642499E-10  7.2053072E+07   13.44256    
  8.7642499E-10  1.1253500E-09  5.5949340E+07   5.770615    
  1.1253500E-09  1.4449800E-09  4.0717976E+07   5.914764    
  1.4449800E-09  1.8553900E-09  3.0312432E+07   6.405858    
  1.8553900E-09  2.3823701E-09  2.5196796E+07   7.331368    
  2.3823701E-09  3.0590199E-09  1.9350874E+07   6.332949    
  3.0590199E-09  3.9278598E-09  1.6211676E+07   18.50396    
  3.9278598E-09  5.0434799E-09  1.1226457E+07   6.369889    
  5.0434799E-09  6.4759500E-09   9713936.       9.261428    
  6.4759500E-09  8.3152898E-09   6442087.       5.835493    
  8.3152898E-09  1.0677000E-08   5929502.       8.140219    
  1.0677000E-08  1.3709600E-08   4075173.       12.60637    
  1.3709600E-08  1.7603501E-08   2762178.       7.051775    
  1.7603501E-08  2.2603301E-08   1946430.       6.707876    
  2.2603301E-08  2.9023200E-08   1615682.       7.615633    
  2.9023200E-08  3.7266499E-08   1227640.       6.717494    
  3.7266499E-08  4.7851199E-08   1105470.       16.05907    
  4.7851199E-08  6.1442101E-08   687211.8       7.672128    
  6.1442101E-08  7.8893301E-08   547935.6       18.63258    
  7.8893301E-08  1.0130100E-07   426781.7       6.839811    
  1.0130100E-07  1.3007300E-07   331256.7       7.989127    
  1.3007300E-07  1.6701701E-07   257317.2       7.011366    
  1.6701701E-07  2.1445400E-07   163419.1       6.937656    
  2.1445400E-07  2.7536399E-07   138364.4       7.058187    
  2.7536399E-07  3.5357499E-07   91935.95       11.30050    
  3.5357499E-07  4.5399901E-07   69274.95       6.392278    
  4.5399901E-07  5.8294700E-07   49500.57       8.152653    
  5.8294700E-07  7.4851800E-07   39698.11       7.855508    
  7.4851800E-07  9.6111603E-07   32541.05       7.834289    
  9.6111603E-07  1.2341000E-06   23461.81       7.650922    
  1.2341000E-06  1.3638900E-06   19248.90       11.64214    
  1.3638900E-06  1.5073300E-06   15324.28       12.62172    
  1.5073300E-06  1.5846100E-06   15868.71       21.40644    
  1.5846100E-06  1.6658601E-06   15252.43       17.17557    
  1.6658601E-06  1.8410600E-06   12612.23       10.43338    
  1.8410600E-06  2.0346799E-06   12680.07       12.22529    
  2.0346799E-06  2.2486699E-06   10843.85       12.19969    
  2.2486699E-06  2.4851699E-06   11785.71       12.09275    
  2.4851699E-06  2.6125899E-06   8054.653       18.46267    
  2.6125899E-06  2.7465401E-06   8264.892       20.17835    
  2.7465401E-06  2.8634900E-06   12503.07       18.18877    
  2.8634900E-06  3.0353899E-06   8345.970       13.24236    
  3.0353899E-06  3.3546301E-06   7502.129       12.24182    
  3.3546301E-06  3.7074401E-06   5856.812       14.39839    
  3.7074401E-06  4.0973500E-06   6659.420       17.40818    
  4.0973500E-06  4.3074201E-06   5094.888       19.42878    
  4.3074201E-06  4.5282700E-06   6389.292       21.46322    
  4.5282700E-06  5.0045101E-06   4785.779       15.37114    
  5.0045101E-06  5.5308401E-06   3975.113       11.93184    
  5.5308401E-06  6.2672698E-06   2894.840       13.34932    
  6.2672698E-06  7.1017398E-06   2780.259       10.35443    
  7.1017398E-06  8.0473301E-06   2454.890       10.13142    
  8.0473301E-06  9.1188203E-06   2176.329       9.022294    
  9.1188203E-06  1.0333000E-05   2183.829       10.30395    
  1.0333000E-05  1.1708800E-05   1567.022       12.30929    
  1.1708800E-05  1.3267800E-05   1095.634       11.73249    
  1.3267800E-05  1.5034400E-05   936.8674       11.48285    
  1.5034400E-05  1.7036200E-05   1040.431       10.49957    
  1.7036200E-05  1.9304500E-05   885.2885       11.08879    
  1.9304500E-05  2.1334799E-05   649.4353       14.43563    
  2.1334799E-05  2.1874899E-05   447.6075       22.56530    
  2.1874899E-05  2.3578599E-05   1051.310       17.11904    
  2.3578599E-05  2.4175501E-05   701.6409       39.10267    
  2.4175501E-05  2.4787500E-05   603.8950       23.66454    
  2.4787500E-05  2.6058400E-05   621.3510       21.15888    
  2.6058400E-05  2.8087899E-05   753.3018       20.48615    
  2.8087899E-05  3.1827800E-05   882.3561       9.424161    
  3.1827800E-05  3.4306700E-05   448.1113       15.29918    
  3.4306700E-05  3.5175199E-05   282.3235       43.51366    
  3.5175199E-05  3.6065601E-05   130.5021       31.18057    
  3.6065601E-05  4.0867701E-05   347.8922       15.06648    
  4.0867701E-05  4.6309200E-05   331.0703       13.85085    
  4.6309200E-05  5.2475199E-05   265.9626       13.37478    
  5.2475199E-05  5.6562199E-05   200.0199       16.66258    
  5.6562199E-05  5.9462200E-05   176.8036       20.82813    
  5.9462200E-05  6.2510902E-05   208.4667       19.59685    
  6.2510902E-05  6.7379500E-05   198.6118       14.97840    
  6.7379500E-05  7.6350902E-05   290.8313       12.24393    
  7.6350902E-05  8.6516899E-05   196.5226       12.13836    
  8.6516899E-05  9.8036500E-05   75.87462       12.29492    
  9.8036500E-05  1.1109000E-04   149.8727       13.17516    
  1.1109000E-04  1.1678600E-04   124.5008       15.93528    
  1.1678600E-04  1.2277300E-04   84.44002       22.40956    
  1.2277300E-04  1.2906799E-04   115.0265       18.35136    
  1.2906799E-04  1.3568600E-04   104.9477       23.52382    
  1.3568600E-04  1.4264201E-04   76.90245       14.45850    
  1.4264201E-04  1.4995600E-04   89.68015       26.60264    
  1.4995600E-04  1.5764400E-04   75.39149       23.00616    
  1.5764400E-04  1.6163501E-04   53.95956       40.59157    
  1.6163501E-04  1.6572700E-04   66.95364       25.23266    
  1.6572700E-04  1.6992200E-04   52.12776       20.37251    
  1.6992200E-04  1.7422400E-04   41.45461       23.98064    
  1.7422400E-04  1.8315599E-04   62.53567       15.71443    
  1.8315599E-04  1.9254700E-04   74.00430       16.30912    
  1.9254700E-04  2.0241900E-04   62.30511       16.00809    
  2.0241900E-04  2.1279699E-04   50.29902       23.71031    
  2.1279699E-04  2.2370800E-04   63.38372       16.23621    
  2.2370800E-04  2.3517800E-04   42.05924       18.75233    
  2.3517800E-04  2.4723500E-04   44.96650       15.63153    
  2.4723500E-04  2.5991100E-04   46.65210       17.86627    
  2.5991100E-04  2.7323700E-04   50.62195       15.81540    
  2.7323700E-04  2.8015400E-04   40.55320       23.99422    
  2.8015400E-04  2.8724599E-04   41.33126       30.30322    
  2.8724599E-04  2.9451799E-04   39.90789       21.79281    
  2.9451799E-04  3.0197401E-04   28.41417       20.33942    
  3.0197401E-04  3.0961799E-04   33.37646       18.88317    
  3.0961799E-04  3.1745600E-04   49.00233       25.38609    
  3.1745600E-04  3.3373301E-04   21.48789       18.40957    
  3.3373301E-04  3.5084400E-04   43.74835       22.00720    
  3.5084400E-04  3.6883200E-04   31.52379       17.88878    
  3.6883200E-04  3.8774201E-04   45.11436       18.57118    
  3.8774201E-04  4.0762199E-04   31.58207       16.09935    
  4.0762199E-04  4.2852099E-04   36.04420       24.70878    
  4.2852099E-04  4.5049199E-04   24.85638       17.31312    
  4.5049199E-04  4.7358900E-04   23.40613       19.51274    
  4.7358900E-04  4.9787102E-04   18.23103       17.65339    
  4.9787102E-04  5.1047403E-04   21.47510       18.35349    
  5.1047403E-04  5.2339700E-04   14.99642       19.21749    
  5.2339700E-04  5.3664698E-04   26.05082       27.15052    
  5.3664698E-04  5.5023201E-04   16.13349       28.02190    
  5.5023201E-04  5.7844300E-04   21.05517       18.49339    
  5.7844300E-04  6.0810102E-04   17.24530       21.29089    
  6.0810102E-04  6.3927902E-04   17.37068       17.74873    
  6.3927902E-04  6.7205500E-04   13.50635       17.72746    
  6.7205500E-04  7.0651202E-04   14.60536       19.18195    
  7.0651202E-04  7.4273598E-04   11.01711       18.07021    
  7.4273598E-04  7.8081700E-04   11.03930       16.13312    
  7.8081700E-04  8.2085002E-04   11.04271       22.75611    
  8.2085002E-04  8.6293602E-04   8.973126       16.66703    
  8.6293602E-04  9.0717903E-04   6.501728       21.02457    
  9.0717903E-04  9.5369201E-04   8.441168       17.47224    
  9.5369201E-04  9.6163998E-04   8.904936       27.67781    
  9.6163998E-04  9.7783399E-04   6.041113       37.88137    
  9.7783399E-04  1.0025901E-03   5.191007       23.62975    
  1.0025901E-03  1.0539900E-03   7.224307       17.91840    
  1.0539900E-03  1.1080300E-03   5.797782       14.37629    
  1.1080300E-03  1.1648400E-03   4.744681       16.29600    
  1.1648400E-03  1.1943300E-03   7.315226       46.40496    
  1.1943300E-03  1.2245600E-03   6.999553       24.43124    
  1.2245600E-03  1.2873500E-03   4.974742       15.90147    
  1.2873500E-03  1.3533500E-03   5.514914       15.07157    
  1.3533500E-03  1.4227401E-03   5.164293       17.94790    
  1.4227401E-03  1.4956900E-03   4.374110       19.24193    
  1.4956900E-03  1.5335500E-03   2.927256       17.58875    
  1.5335500E-03  1.5723699E-03   3.516538       20.99602    
  1.5723699E-03  1.6121800E-03   4.059855       17.75891    
  1.6121800E-03  1.6529900E-03   4.937188       25.40676    
  1.6529900E-03  1.7377400E-03   4.756852       16.68164    
  1.7377400E-03  1.8268300E-03   3.684191       16.14428    
  1.8268300E-03  1.8730800E-03   4.890515       24.23301    
  1.8730800E-03  1.9205000E-03   3.560917       21.61266    
  1.9205000E-03  1.9691200E-03   3.787007       19.65430    
  1.9691200E-03  2.0189700E-03   6.344054       19.83095    
  2.0189700E-03  2.1224800E-03   2.812696       16.74423    
  2.1224800E-03  2.2313001E-03   4.939664       21.67863    
  2.2313001E-03  2.2688799E-03   3.544039       25.97969    
  2.2688799E-03  2.3068599E-03   4.450208       25.39700    
  2.3068599E-03  2.3457000E-03   5.533431       39.28319    
  2.3457000E-03  2.3652499E-03   6.284766       40.46723    
  2.3652499E-03  2.3852000E-03   3.843647       32.61827    
  2.3852000E-03  2.4251300E-03   3.582742       22.05747    
  2.4251300E-03  2.4659701E-03   2.938507       29.68972    
  2.4659701E-03  2.5923999E-03   3.788637       18.62124    
  2.5923999E-03  2.7253199E-03   2.904696       14.77705    
  2.7253199E-03  2.8650500E-03   2.804714       22.40257    
  2.8650500E-03  3.0119400E-03   2.317230       16.18261    
  3.0119400E-03  3.0881900E-03   2.029736       22.20573    
  3.0881900E-03  3.1663701E-03   3.293741       23.51457    
  3.1663701E-03  3.2465300E-03   2.433845       31.84935    
  3.2465300E-03  3.3287101E-03   2.589531       30.32244    
  3.3287101E-03  3.4993801E-03   2.648429       26.23712    
  3.4993801E-03  3.6787901E-03   1.657748       20.86573    
  3.6787901E-03  3.8674099E-03   2.464676       21.09362    
  3.8674099E-03  4.0656999E-03   2.620468       17.11265    
  4.0656999E-03  4.2741499E-03   2.237710       22.70876    
  4.2741499E-03  4.4932901E-03   2.049656       17.50417    
  4.4932901E-03  4.6070400E-03   3.049854       24.73209    
  4.6070400E-03  4.7236700E-03   1.775897       28.22985    
  4.7236700E-03  4.8432499E-03   1.892030       24.34860    
  4.8432499E-03  4.9658502E-03   1.302266       26.53124    
  4.9658502E-03  5.2204598E-03   1.598600       18.46285    
  5.2204598E-03  5.4881200E-03   1.904748       19.14096    
  5.4881200E-03  5.7695000E-03   1.449325       19.39533    
  5.7695000E-03  5.9155500E-03   1.470339       23.05748    
  5.9155500E-03  6.0653100E-03   2.112250       26.29990    
  6.0653100E-03  6.2188501E-03  0.8215234       21.74602    
  6.2188501E-03  6.3762800E-03   1.580518       27.01122    
  6.3762800E-03  6.5377001E-03   2.265291       24.63453    
  6.5377001E-03  6.5923799E-03   2.381504       30.25557    
  6.5923799E-03  6.6475999E-03  0.5381810       63.01729    
  6.6475999E-03  6.7031998E-03   1.705904       52.50654    
  6.7031998E-03  6.8728901E-03  0.7433044       21.49932    
  6.8728901E-03  7.0468802E-03   2.489001       24.88525    
  7.0468802E-03  7.2252699E-03  0.8523741       32.50339    
  7.2252699E-03  7.4081798E-03   1.823604       39.36774    
  7.4081798E-03  7.5957198E-03   1.180321       27.83051    
  7.5957198E-03  7.7880099E-03  0.9657834       34.38716    
  7.7880099E-03  7.9851598E-03  0.7972978       23.17371    
  7.9851598E-03  8.1873098E-03   1.480092       20.76989    
  8.1873098E-03  8.3945701E-03  0.9858387       26.71085    
  8.3945701E-03  8.6070802E-03  0.9717151       36.89944    
  8.6070802E-03  8.8249696E-03   1.525110       26.42784    
  8.8249696E-03  9.0483697E-03  0.5652112       35.07803    
  9.0483697E-03  9.2774397E-03  0.7979705       25.22182    
  9.2774397E-03  9.5122904E-03   1.156627       28.06991    
  9.5122904E-03  9.7530996E-03   1.207875       31.81363    
  9.7530996E-03  9.9999998E-03   1.303185       25.25737    
  9.9999998E-03  1.0253200E-02  0.3656358       48.06154    
  1.0253200E-02  1.0512700E-02  0.7334229       33.12709    
  1.0512700E-02  1.0778800E-02  0.9308500       27.61644    
  1.0778800E-02  1.1051700E-02  0.7396031       24.84117    
  1.1051700E-02  1.1331500E-02  0.5654491       28.68239    
  1.1331500E-02  1.1618300E-02  0.7874557       30.90470    
  1.1618300E-02  1.1912500E-02  0.5598463       24.71668    
  1.1912500E-02  1.2214000E-02  0.9397922       23.32894    
  1.2214000E-02  1.2523200E-02   1.210081       25.73682    
  1.2523200E-02  1.2840200E-02  0.9949981       27.99617    
  1.2840200E-02  1.3165300E-02  0.6466339       32.31517    
  1.3165300E-02  1.3498600E-02  0.7503402       24.38001    
  1.3498600E-02  1.3840300E-02  0.5883795       31.81407    
  1.3840300E-02  1.4190700E-02  0.4866299       28.94557    
  1.4190700E-02  1.4549900E-02  0.4872975       28.73420    
  1.4549900E-02  1.4918300E-02  0.7873906       37.55492    
  1.4918300E-02  1.5295900E-02   1.022556       35.20082    
  1.5295900E-02  1.5683100E-02  0.4518804       28.95714    
  1.5683100E-02  1.6080100E-02  0.4543141       30.77225    
  1.6080100E-02  1.6487200E-02  0.6203542       44.21887    
  1.6487200E-02  1.6904600E-02  0.4467387       34.31014    
  1.6904600E-02  1.7332500E-02  0.4989552       33.54685    
  1.7332500E-02  1.7771300E-02  0.3339501       38.06463    
  1.7771300E-02  1.8221200E-02  0.4700670       32.85017    
  1.8221200E-02  1.8682500E-02  0.3128326       43.99270    
  1.8682500E-02  1.9155400E-02  0.4938752       25.15887    
  1.9155400E-02  1.9640300E-02  0.6261587       40.22282    
  1.9640300E-02  2.0000000E-02  0.7173373       51.20932    
  2.0000000E-02  2.5174996E-02  0.5383580       11.27168    
  2.5174996E-02  3.1689022E-02  0.4883116       10.22046    
  3.1689022E-02  3.9888553E-02  0.4716667       8.832263    
  3.9888553E-02  5.0209712E-02  0.4436936       9.456593    
  5.0209712E-02  6.3201472E-02  0.4111295       8.719612    
  6.3201472E-02  7.9554841E-02  0.3511587       9.119729    
  7.9554841E-02  0.1001396      0.3332766       9.116935    
  0.1001396      0.1260508      0.2855689       8.733053    
  0.1260508      0.1586664      0.1746462       11.25681    
  0.1586664      0.1997213      0.1360246       11.91929    
  0.1997213      0.2513991      8.0197223E-02   15.08835    
  0.2513991      0.3164486      3.2404657E-02   23.64002    
  0.3164486      0.3983297      6.3161468E-03   38.34096    
  0.3983297      0.5013974       0.000000       0.000000    
  0.5013974      0.6311339       0.000000       0.000000    
  0.6311339      0.7944397       0.000000       0.000000    
  0.7944397       1.000001       0.000000       0.000000    
