 # Detector n:  1  HeIInflux 
 # N. of energy intervals 260
  1.0000100E-14  2.0000000E-13  3.0850269E+10   20.65608    
  2.0000000E-13  2.9297300E-13  1.0056100E+11   13.27598    
  2.9297300E-13  4.2916701E-13  1.2939864E+11   11.27187    
  4.2916701E-13  6.2867300E-13  1.8768508E+11   8.624311    
  6.2867300E-13  9.2092198E-13  2.5863414E+11   4.396821    
  9.2092198E-13  1.3490300E-12  3.4284270E+11   2.672081    
  1.3490300E-12  1.9761499E-12  4.8155194E+11   1.989125    
  1.9761499E-12  2.8947901E-12  6.3374708E+11   1.405476    
  2.8947901E-12  4.2404799E-12  7.4862461E+11   1.913240    
  4.2404799E-12  6.2117499E-12  8.3642843E+11  0.8706781    
  6.2117499E-12  9.0993801E-12  8.6834387E+11  0.8542126    
  9.0993801E-12  1.3329400E-11  7.9871692E+11  0.9505811    
  1.3329400E-11  1.9525799E-11  6.1964426E+11  0.7406290    
  1.9525799E-11  2.8602700E-11  3.8189197E+11  0.8696655    
  2.8602700E-11  4.1899099E-11  1.8930637E+11   1.003397    
  4.1899099E-11  6.1376598E-11  8.2337800E+10   1.073103    
  6.1376598E-11  8.9908601E-11  3.5002446E+10   1.496372    
  8.9908601E-11  1.3170399E-10  1.4827116E+10   1.684456    
  1.3170399E-10  1.9292901E-10  6.8893880E+09   1.258605    
  1.9292901E-10  2.8261499E-10  3.8931034E+09  0.7726544    
  2.8261499E-10  4.1399401E-10  2.5015145E+09  0.9170702    
  4.1399401E-10  5.3157900E-10  1.7919562E+09  0.7916648    
  5.3157900E-10  6.2506200E-10  1.4628854E+09   1.091629    
  6.2506200E-10  6.8256001E-10  1.3145736E+09   1.528384    
  6.8256001E-10  8.3368101E-10  1.0982948E+09   1.001274    
  8.3368101E-10  8.7642499E-10  9.6899456E+08   3.210858    
  8.7642499E-10  1.1253500E-09  8.3461280E+08  0.7327039    
  1.1253500E-09  1.4449800E-09  6.4428538E+08  0.8323282    
  1.4449800E-09  1.8553900E-09  5.0119373E+08   1.205436    
  1.8553900E-09  2.3823701E-09  3.9519462E+08  0.8622508    
  2.3823701E-09  3.0590199E-09  3.0539658E+08  0.8104230    
  3.0590199E-09  3.9278598E-09  2.3768067E+08  0.6719313    
  3.9278598E-09  5.0434799E-09  1.8378162E+08  0.7166948    
  5.0434799E-09  6.4759500E-09  1.4428917E+08   1.077336    
  6.4759500E-09  8.3152898E-09  1.1172248E+08  0.7674920    
  8.3152898E-09  1.0677000E-08  8.7904536E+07   1.027437    
  1.0677000E-08  1.3709600E-08  6.9716664E+07  0.9297053    
  1.3709600E-08  1.7603501E-08  5.3326612E+07  0.9641469    
  1.7603501E-08  2.2603301E-08  4.2346856E+07  0.9119220    
  2.2603301E-08  2.9023200E-08  3.2897200E+07  0.7766129    
  2.9023200E-08  3.7266499E-08  2.6013786E+07  0.8624352    
  3.7266499E-08  4.7851199E-08  1.9838248E+07  0.7345995    
  4.7851199E-08  6.1442101E-08  1.5932323E+07  0.8215266    
  6.1442101E-08  7.8893301E-08  1.2158108E+07  0.7225368    
  7.8893301E-08  1.0130100E-07   9791252.      0.8034067    
  1.0130100E-07  1.3007300E-07   7495706.      0.8634180    
  1.3007300E-07  1.6701701E-07   5797814.      0.8262497    
  1.6701701E-07  2.1445400E-07   4538226.      0.9125404    
  2.1445400E-07  2.7536399E-07   3551276.      0.8211782    
  2.7536399E-07  3.5357499E-07   2704512.      0.8444335    
  3.5357499E-07  4.5399901E-07   2092389.      0.6071138    
  4.5399901E-07  5.8294700E-07   1634241.      0.7241569    
  5.8294700E-07  7.4851800E-07   1274436.      0.6531059    
  7.4851800E-07  9.6111603E-07   988654.4      0.8720354    
  9.6111603E-07  1.2341000E-06   760166.6      0.7211568    
  1.2341000E-06  1.3638900E-06   647600.2       1.396148    
  1.3638900E-06  1.5073300E-06   577006.4       1.419079    
  1.5073300E-06  1.5846100E-06   520715.3       1.765649    
  1.5846100E-06  1.6658601E-06   512306.2       1.844504    
  1.6658601E-06  1.8410600E-06   463272.0       1.863299    
  1.8410600E-06  2.0346799E-06   422917.0       1.825769    
  2.0346799E-06  2.2486699E-06   378949.3       1.344219    
  2.2486699E-06  2.4851699E-06   343176.0       1.363902    
  2.4851699E-06  2.6125899E-06   308892.8       1.558211    
  2.6125899E-06  2.7465401E-06   295136.9       1.678903    
  2.7465401E-06  2.8634900E-06   272161.9       2.142395    
  2.8634900E-06  3.0353899E-06   269092.2       1.778648    
  3.0353899E-06  3.3546301E-06   243776.0       1.170529    
  3.3546301E-06  3.7074401E-06   222828.5       1.364010    
  3.7074401E-06  4.0973500E-06   204007.2       1.406843    
  4.0973500E-06  4.3074201E-06   193955.8       2.062408    
  4.3074201E-06  4.5282700E-06   174834.7       2.461576    
  4.5282700E-06  5.0045101E-06   164855.6       1.318302    
  5.0045101E-06  5.5308401E-06   163032.1       1.680974    
  5.5308401E-06  6.2672698E-06   112261.3       1.285358    
  6.2672698E-06  7.1017398E-06   114146.9       1.297990    
  7.1017398E-06  8.0473301E-06   97308.86       1.143842    
  8.0473301E-06  9.1188203E-06   84264.68       1.367424    
  9.1188203E-06  1.0333000E-05   74888.15       1.307338    
  1.0333000E-05  1.1708800E-05   65700.48       1.398278    
  1.1708800E-05  1.3267800E-05   57398.87       1.054762    
  1.3267800E-05  1.5034400E-05   48805.23       1.383023    
  1.5034400E-05  1.7036200E-05   41980.46       1.661417    
  1.7036200E-05  1.9304500E-05   37043.99       1.098031    
  1.9304500E-05  2.1334799E-05   33308.42       1.525620    
  2.1334799E-05  2.1874899E-05   31303.40       2.193711    
  2.1874899E-05  2.3578599E-05   29247.92       1.539158    
  2.3578599E-05  2.4175501E-05   28392.20       3.368637    
  2.4175501E-05  2.4787500E-05   28366.34       2.814405    
  2.4787500E-05  2.6058400E-05   26215.80       2.066382    
  2.6058400E-05  2.8087899E-05   25222.83       1.850846    
  2.8087899E-05  3.1827800E-05   27943.67      0.9964043    
  3.1827800E-05  3.4306700E-05   17683.56       1.641709    
  3.4306700E-05  3.5175199E-05   9396.449       4.308081    
  3.5175199E-05  3.6065601E-05   8405.187       4.275764    
  3.6065601E-05  4.0867701E-05   11365.27       1.946325    
  4.0867701E-05  4.6309200E-05   12628.94       1.833111    
  4.6309200E-05  5.2475199E-05   11305.03       1.181363    
  5.2475199E-05  5.6562199E-05   9999.658       2.252377    
  5.6562199E-05  5.9462200E-05   9479.677       2.168813    
  5.9462200E-05  6.2510902E-05   8863.469       2.378656    
  6.2510902E-05  6.7379500E-05   8489.984       2.047428    
  6.7379500E-05  7.6350902E-05   8452.521       1.183798    
  7.6350902E-05  8.6516899E-05   6242.770       1.841015    
  8.6516899E-05  9.8036500E-05   3646.706       1.880106    
  9.8036500E-05  1.1109000E-04   4293.218       1.402907    
  1.1109000E-04  1.1678600E-04   4221.164       2.067772    
  1.1678600E-04  1.2277300E-04   2680.413       3.259629    
  1.2277300E-04  1.2906799E-04   4190.079       2.331834    
  1.2906799E-04  1.3568600E-04   4046.433       3.551615    
  1.3568600E-04  1.4264201E-04   3093.830       2.627339    
  1.4264201E-04  1.4995600E-04   2284.328       2.374827    
  1.4995600E-04  1.5764400E-04   2082.919       3.813460    
  1.5764400E-04  1.6163501E-04   1760.955       4.481428    
  1.6163501E-04  1.6572700E-04   2014.430       3.715582    
  1.6572700E-04  1.6992200E-04   2091.478       4.270665    
  1.6992200E-04  1.7422400E-04   2191.907       4.487599    
  1.7422400E-04  1.8315599E-04   2223.044       3.046569    
  1.8315599E-04  1.9254700E-04   2259.255       2.387182    
  1.9254700E-04  2.0241900E-04   1899.407       3.315748    
  2.0241900E-04  2.1279699E-04   1545.438       2.299888    
  2.1279699E-04  2.2370800E-04   1576.793       2.653934    
  2.2370800E-04  2.3517800E-04   1546.689       2.138705    
  2.3517800E-04  2.4723500E-04   1587.572       2.592860    
  2.4723500E-04  2.5991100E-04   1481.051       3.075095    
  2.5991100E-04  2.7323700E-04   1508.558       2.650667    
  2.7323700E-04  2.8015400E-04   1365.644       2.445650    
  2.8015400E-04  2.8724599E-04   1025.487       3.487841    
  2.8724599E-04  2.9451799E-04   1116.016       4.465067    
  2.9451799E-04  3.0197401E-04   1074.240       2.787145    
  3.0197401E-04  3.0961799E-04   1002.260       4.383722    
  3.0961799E-04  3.1745600E-04   1032.905       4.498182    
  3.1745600E-04  3.3373301E-04   1033.450       3.162278    
  3.3373301E-04  3.5084400E-04   1053.285       2.076902    
  3.5084400E-04  3.6883200E-04   916.3823       2.899626    
  3.6883200E-04  3.8774201E-04   816.0270       2.673563    
  3.8774201E-04  4.0762199E-04   779.4592       2.843248    
  4.0762199E-04  4.2852099E-04   635.4846       3.416705    
  4.2852099E-04  4.5049199E-04   580.9962       2.843921    
  4.5049199E-04  4.7358900E-04   597.8655       2.911532    
  4.7358900E-04  4.9787102E-04   566.6699       3.287649    
  4.9787102E-04  5.1047403E-04   590.8556       3.343683    
  5.1047403E-04  5.2339700E-04   563.2139       3.612025    
  5.2339700E-04  5.3664698E-04   419.7040       3.348983    
  5.3664698E-04  5.5023201E-04   506.6126       5.926887    
  5.5023201E-04  5.7844300E-04   425.0919       3.753507    
  5.7844300E-04  6.0810102E-04   426.8790       3.232876    
  6.0810102E-04  6.3927902E-04   388.4555       3.190755    
  6.3927902E-04  6.7205500E-04   304.6837       3.643435    
  6.7205500E-04  7.0651202E-04   331.7264       3.116843    
  7.0651202E-04  7.4273598E-04   291.6727       3.620716    
  7.4273598E-04  7.8081700E-04   253.8439       3.749861    
  7.8081700E-04  8.2085002E-04   192.8250       3.275818    
  8.2085002E-04  8.6293602E-04   175.5840       3.291964    
  8.6293602E-04  9.0717903E-04   160.2673       3.382876    
  9.0717903E-04  9.5369201E-04   165.6250       3.488605    
  9.5369201E-04  9.6163998E-04   152.3620       6.971709    
  9.6163998E-04  9.7783399E-04   125.8463       8.689392    
  9.7783399E-04  1.0025901E-03   132.1784       5.451370    
  1.0025901E-03  1.0539900E-03   111.7022       5.177137    
  1.0539900E-03  1.1080300E-03   117.9638       4.167299    
  1.1080300E-03  1.1648400E-03   106.8095       5.374903    
  1.1648400E-03  1.1943300E-03   89.80752       5.440726    
  1.1943300E-03  1.2245600E-03   102.2161       6.594743    
  1.2245600E-03  1.2873500E-03   89.39065       4.715369    
  1.2873500E-03  1.3533500E-03   89.20150       5.023566    
  1.3533500E-03  1.4227401E-03   86.69450       3.694590    
  1.4227401E-03  1.4956900E-03   79.84872       2.571785    
  1.4956900E-03  1.5335500E-03   76.76400       6.346972    
  1.5335500E-03  1.5723699E-03   78.76781       6.965882    
  1.5723699E-03  1.6121800E-03   76.81652       5.344836    
  1.6121800E-03  1.6529900E-03   77.83078       6.603991    
  1.6529900E-03  1.7377400E-03   71.08632       3.242544    
  1.7377400E-03  1.8268300E-03   64.14120       6.786483    
  1.8268300E-03  1.8730800E-03   63.44831       6.728030    
  1.8730800E-03  1.9205000E-03   56.95621       5.111131    
  1.9205000E-03  1.9691200E-03   56.12044       4.868110    
  1.9691200E-03  2.0189700E-03   59.94666       6.119585    
  2.0189700E-03  2.1224800E-03   55.59221       2.795458    
  2.1224800E-03  2.2313001E-03   52.12781       5.702327    
  2.2313001E-03  2.2688799E-03   46.37164       9.355893    
  2.2688799E-03  2.3068599E-03   45.37271       6.600785    
  2.3068599E-03  2.3457000E-03   49.32200       6.069673    
  2.3457000E-03  2.3652499E-03   46.70876       14.83778    
  2.3652499E-03  2.3852000E-03   41.89723       12.00203    
  2.3852000E-03  2.4251300E-03   44.28359       5.619046    
  2.4251300E-03  2.4659701E-03   38.49948       9.413488    
  2.4659701E-03  2.5923999E-03   34.76072       5.904706    
  2.5923999E-03  2.7253199E-03   35.10814       4.738291    
  2.7253199E-03  2.8650500E-03   29.43562       5.775055    
  2.8650500E-03  3.0119400E-03   27.68939       4.699520    
  3.0119400E-03  3.0881900E-03   26.61065       9.094643    
  3.0881900E-03  3.1663701E-03   21.78312       8.850559    
  3.1663701E-03  3.2465300E-03   24.27646       8.061500    
  3.2465300E-03  3.3287101E-03   25.63735       7.644546    
  3.3287101E-03  3.4993801E-03   19.41561       5.330893    
  3.4993801E-03  3.6787901E-03   18.09292       6.661914    
  3.6787901E-03  3.8674099E-03   15.54983       4.960222    
  3.8674099E-03  4.0656999E-03   16.18505       5.241078    
  4.0656999E-03  4.2741499E-03   14.49751       4.867003    
  4.2741499E-03  4.4932901E-03   13.93393       4.907975    
  4.4932901E-03  4.6070400E-03   13.87569       8.979385    
  4.6070400E-03  4.7236700E-03   12.71407       8.402076    
  4.7236700E-03  4.8432499E-03   10.81213       9.777125    
  4.8432499E-03  4.9658502E-03   12.32654       8.740988    
  4.9658502E-03  5.2204598E-03   9.991270       6.806523    
  5.2204598E-03  5.4881200E-03   11.44971       5.439539    
  5.4881200E-03  5.7695000E-03   10.01725       5.655803    
  5.7695000E-03  5.9155500E-03   10.35925       9.348094    
  5.9155500E-03  6.0653100E-03   9.108581       11.02496    
  6.0653100E-03  6.2188501E-03   9.052589       8.430039    
  6.2188501E-03  6.3762800E-03   8.797987       10.22018    
  6.3762800E-03  6.5377001E-03   7.618364       10.55274    
  6.5377001E-03  6.5923799E-03   7.804628       14.54256    
  6.5923799E-03  6.6475999E-03   8.658141       19.02277    
  6.6475999E-03  6.7031998E-03   10.67159       14.05659    
  6.7031998E-03  6.8728901E-03   7.286590       10.48968    
  6.8728901E-03  7.0468802E-03   7.514443       8.297218    
  7.0468802E-03  7.2252699E-03   6.658201       9.534927    
  7.2252699E-03  7.4081798E-03   6.457983       8.014310    
  7.4081798E-03  7.5957198E-03   7.117376       12.03612    
  7.5957198E-03  7.7880099E-03   6.081224       10.59023    
  7.7880099E-03  7.9851598E-03   5.369327       9.474800    
  7.9851598E-03  8.1873098E-03   5.382498       8.850839    
  8.1873098E-03  8.3945701E-03   5.708649       10.21098    
  8.3945701E-03  8.6070802E-03   6.196427       8.271210    
  8.6070802E-03  8.8249696E-03   4.534301       10.87577    
  8.8249696E-03  9.0483697E-03   3.758370       14.23722    
  9.0483697E-03  9.2774397E-03   4.525217       12.48627    
  9.2774397E-03  9.5122904E-03   4.669607       7.815152    
  9.5122904E-03  9.7530996E-03   4.748730       9.625298    
  9.7530996E-03  9.9999998E-03   4.642861       10.00346    
  9.9999998E-03  1.0253200E-02   4.821171       9.064007    
  1.0253200E-02  1.0512700E-02   4.385401       10.27508    
  1.0512700E-02  1.0778800E-02   4.009341       14.53182    
  1.0778800E-02  1.1051700E-02   4.070440       11.84915    
  1.1051700E-02  1.1331500E-02   4.319517       9.008116    
  1.1331500E-02  1.1618300E-02   3.422427       13.24027    
  1.1618300E-02  1.1912500E-02   3.452999       12.75262    
  1.1912500E-02  1.2214000E-02   3.763444       8.581411    
  1.2214000E-02  1.2523200E-02   3.239567       13.35054    
  1.2523200E-02  1.2840200E-02   2.963227       8.694775    
  1.2840200E-02  1.3165300E-02   2.942147       11.27374    
  1.3165300E-02  1.3498600E-02   2.795148       12.16262    
  1.3498600E-02  1.3840300E-02   2.570188       12.30876    
  1.3840300E-02  1.4190700E-02   2.296404       9.116319    
  1.4190700E-02  1.4549900E-02   2.758487       14.19330    
  1.4549900E-02  1.4918300E-02   3.381856       11.30203    
  1.4918300E-02  1.5295900E-02   2.703098       8.808326    
  1.5295900E-02  1.5683100E-02   2.584924       10.61440    
  1.5683100E-02  1.6080100E-02   2.406195       11.56543    
  1.6080100E-02  1.6487200E-02   1.947708       15.48459    
  1.6487200E-02  1.6904600E-02   2.427589       11.88354    
  1.6904600E-02  1.7332500E-02   2.065756       12.37257    
  1.7332500E-02  1.7771300E-02   1.664119       10.77811    
  1.7771300E-02  1.8221200E-02   1.929929       10.19636    
  1.8221200E-02  1.8682500E-02   1.926421       13.20539    
  1.8682500E-02  1.9155400E-02   1.772411       14.76197    
  1.9155400E-02  1.9640300E-02   1.732002       12.29087    
  1.9640300E-02  2.0000000E-02   1.371215       16.25603    
