 # Detector n:  1  HeIInflux 
 # N. of energy intervals 260
  1.0000100E-14  2.0000000E-13  3.1877665E+10   19.64794    
  2.0000000E-13  2.9297300E-13  6.6197651E+10   11.86837    
  2.9297300E-13  4.2916701E-13  1.2477491E+11   6.666205    
  4.2916701E-13  6.2867300E-13  1.6501531E+11   8.442476    
  6.2867300E-13  9.2092198E-13  2.5017963E+11   6.012940    
  9.2092198E-13  1.3490300E-12  3.5598333E+11   3.796051    
  1.3490300E-12  1.9761499E-12  4.4448671E+11   3.849299    
  1.9761499E-12  2.8947901E-12  5.7325322E+11   1.332344    
  2.8947901E-12  4.2404799E-12  7.2194746E+11   1.446727    
  4.2404799E-12  6.2117499E-12  8.2004194E+11   1.394134    
  6.2117499E-12  9.0993801E-12  8.6330612E+11   1.085178    
  9.0993801E-12  1.3329400E-11  7.6702476E+11  0.7323527    
  1.3329400E-11  1.9525799E-11  6.0159689E+11  0.8829306    
  1.9525799E-11  2.8602700E-11  3.7656307E+11  0.9897277    
  2.8602700E-11  4.1899099E-11  1.9013637E+11   1.333809    
  4.1899099E-11  6.1376598E-11  8.2332852E+10   1.231224    
  6.1376598E-11  8.9908601E-11  3.4697474E+10   2.130724    
  8.9908601E-11  1.3170399E-10  1.5306298E+10   1.334457    
  1.3170399E-10  1.9292901E-10  7.5058698E+09   1.498289    
  1.9292901E-10  2.8261499E-10  4.2421041E+09   1.192807    
  2.8261499E-10  4.1399401E-10  2.7308137E+09  0.8509445    
  4.1399401E-10  5.3157900E-10  1.9259480E+09  0.9407892    
  5.3157900E-10  6.2506200E-10  1.5791423E+09   1.169918    
  6.2506200E-10  6.8256001E-10  1.3870141E+09   1.431722    
  6.8256001E-10  8.3368101E-10  1.1832969E+09   1.172010    
  8.3368101E-10  8.7642499E-10  1.0557977E+09   2.448676    
  8.7642499E-10  1.1253500E-09  8.9216474E+08  0.8749757    
  1.1253500E-09  1.4449800E-09  6.9809338E+08   1.092824    
  1.4449800E-09  1.8553900E-09  5.3969530E+08   1.080751    
  1.8553900E-09  2.3823701E-09  4.2129747E+08  0.9826951    
  2.3823701E-09  3.0590199E-09  3.2776608E+08  0.7591059    
  3.0590199E-09  3.9278598E-09  2.5580262E+08   1.049566    
  3.9278598E-09  5.0434799E-09  1.9657578E+08  0.7518074    
  5.0434799E-09  6.4759500E-09  1.5442835E+08  0.9519674    
  6.4759500E-09  8.3152898E-09  1.2197736E+08   1.041212    
  8.3152898E-09  1.0677000E-08  9.4297680E+07  0.9695639    
  1.0677000E-08  1.3709600E-08  7.3509368E+07   1.030829    
  1.3709600E-08  1.7603501E-08  5.7565808E+07  0.6384895    
  1.7603501E-08  2.2603301E-08  4.4238292E+07  0.5824621    
  2.2603301E-08  2.9023200E-08  3.5409072E+07  0.8984342    
  2.9023200E-08  3.7266499E-08  2.7342498E+07  0.7800002    
  3.7266499E-08  4.7851199E-08  2.1649232E+07   1.215967    
  4.7851199E-08  6.1442101E-08  1.6921218E+07   1.052275    
  6.1442101E-08  7.8893301E-08  1.3122823E+07  0.7333171    
  7.8893301E-08  1.0130100E-07  1.0269887E+07  0.7661234    
  1.0130100E-07  1.3007300E-07   7866312.      0.9315289    
  1.3007300E-07  1.6701701E-07   6209068.      0.9039589    
  1.6701701E-07  2.1445400E-07   4781940.      0.8413720    
  2.1445400E-07  2.7536399E-07   3707928.       1.179827    
  2.7536399E-07  3.5357499E-07   2858596.       1.249989    
  3.5357499E-07  4.5399901E-07   2248674.      0.9651782    
  4.5399901E-07  5.8294700E-07   1720866.      0.7486446    
  5.8294700E-07  7.4851800E-07   1310802.      0.9596432    
  7.4851800E-07  9.6111603E-07   1019762.      0.7854304    
  9.6111603E-07  1.2341000E-06   801356.9      0.8213533    
  1.2341000E-06  1.3638900E-06   663423.1       1.578079    
  1.3638900E-06  1.5073300E-06   602516.2       1.317126    
  1.5073300E-06  1.5846100E-06   558881.7       2.208452    
  1.5846100E-06  1.6658601E-06   530252.6       1.642448    
  1.6658601E-06  1.8410600E-06   478384.0       1.508243    
  1.8410600E-06  2.0346799E-06   437611.8       1.843750    
  2.0346799E-06  2.2486699E-06   404409.5       2.177708    
  2.2486699E-06  2.4851699E-06   361276.9       1.607291    
  2.4851699E-06  2.6125899E-06   323441.2       2.012413    
  2.6125899E-06  2.7465401E-06   314954.9       2.503928    
  2.7465401E-06  2.8634900E-06   296414.3       2.206462    
  2.8634900E-06  3.0353899E-06   265995.9       1.571113    
  3.0353899E-06  3.3546301E-06   265161.6       1.651203    
  3.3546301E-06  3.7074401E-06   231844.5       1.864422    
  3.7074401E-06  4.0973500E-06   209673.0       1.714212    
  4.0973500E-06  4.3074201E-06   191569.3       1.748097    
  4.3074201E-06  4.5282700E-06   187969.8       1.603228    
  4.5282700E-06  5.0045101E-06   166603.1       1.340823    
  5.0045101E-06  5.5308401E-06   162019.1       1.710842    
  5.5308401E-06  6.2672698E-06   113145.5       1.198145    
  6.2672698E-06  7.1017398E-06   118350.3       1.375755    
  7.1017398E-06  8.0473301E-06   102861.6       1.193471    
  8.0473301E-06  9.1188203E-06   88673.81       1.718833    
  9.1188203E-06  1.0333000E-05   76075.24       1.241116    
  1.0333000E-05  1.1708800E-05   66447.15       1.477104    
  1.1708800E-05  1.3267800E-05   56740.68       1.233341    
  1.3267800E-05  1.5034400E-05   50767.62       1.807983    
  1.5034400E-05  1.7036200E-05   44193.89       1.496932    
  1.7036200E-05  1.9304500E-05   38712.96       1.624938    
  1.9304500E-05  2.1334799E-05   33887.14       1.711168    
  2.1334799E-05  2.1874899E-05   30856.01       2.748695    
  2.1874899E-05  2.3578599E-05   29883.40       2.675128    
  2.3578599E-05  2.4175501E-05   26575.71       3.338036    
  2.4175501E-05  2.4787500E-05   27740.89       2.131981    
  2.4787500E-05  2.6058400E-05   27964.48       2.120790    
  2.6058400E-05  2.8087899E-05   26624.26       1.423001    
  2.8087899E-05  3.1827800E-05   27773.01       1.181880    
  3.1827800E-05  3.4306700E-05   18014.72       2.088899    
  3.4306700E-05  3.5175199E-05   9186.446       4.510977    
  3.5175199E-05  3.6065601E-05   8417.864       7.841222    
  3.6065601E-05  4.0867701E-05   11240.23       1.469083    
  4.0867701E-05  4.6309200E-05   12371.13       1.350662    
  4.6309200E-05  5.2475199E-05   11228.71       1.920820    
  5.2475199E-05  5.6562199E-05   10373.72       2.160468    
  5.6562199E-05  5.9462200E-05   9425.877       2.079525    
  5.9462200E-05  6.2510902E-05   9441.166       2.079117    
  6.2510902E-05  6.7379500E-05   8615.960       2.421206    
  6.7379500E-05  7.6350902E-05   8658.431       1.258880    
  7.6350902E-05  8.6516899E-05   6345.121       1.883242    
  8.6516899E-05  9.8036500E-05   3654.295       1.832363    
  9.8036500E-05  1.1109000E-04   4415.568       1.730361    
  1.1109000E-04  1.1678600E-04   4385.531       2.222315    
  1.1678600E-04  1.2277300E-04   3142.310       3.152631    
  1.2277300E-04  1.2906799E-04   4274.806       2.958664    
  1.2906799E-04  1.3568600E-04   4328.689       2.896239    
  1.3568600E-04  1.4264201E-04   3095.713       2.544606    
  1.4264201E-04  1.4995600E-04   2350.179       3.008584    
  1.4995600E-04  1.5764400E-04   2253.250       4.005441    
  1.5764400E-04  1.6163501E-04   1687.781       5.356069    
  1.6163501E-04  1.6572700E-04   2054.704       5.581334    
  1.6572700E-04  1.6992200E-04   2343.137       4.954803    
  1.6992200E-04  1.7422400E-04   2224.230       4.485150    
  1.7422400E-04  1.8315599E-04   2367.749       2.625783    
  1.8315599E-04  1.9254700E-04   2148.978       2.759945    
  1.9254700E-04  2.0241900E-04   2095.343       3.596174    
  2.0241900E-04  2.1279699E-04   1552.020       2.751536    
  2.1279699E-04  2.2370800E-04   1619.743       3.921843    
  2.2370800E-04  2.3517800E-04   1561.665       3.120585    
  2.3517800E-04  2.4723500E-04   1580.884       2.088464    
  2.4723500E-04  2.5991100E-04   1577.803       3.046728    
  2.5991100E-04  2.7323700E-04   1573.588       2.529369    
  2.7323700E-04  2.8015400E-04   1380.844       2.105784    
  2.8015400E-04  2.8724599E-04   1151.100       5.404908    
  2.8724599E-04  2.9451799E-04   1086.597       4.057350    
  2.9451799E-04  3.0197401E-04   1183.046       3.353865    
  3.0197401E-04  3.0961799E-04   996.6599       5.020040    
  3.0961799E-04  3.1745600E-04   984.5264       5.886208    
  3.1745600E-04  3.3373301E-04   1011.732       2.762863    
  3.3373301E-04  3.5084400E-04   1063.418       3.330200    
  3.5084400E-04  3.6883200E-04   897.5120       3.261389    
  3.6883200E-04  3.8774201E-04   791.5179       3.575209    
  3.8774201E-04  4.0762199E-04   816.7277       2.796844    
  4.0762199E-04  4.2852099E-04   694.2148       4.160116    
  4.2852099E-04  4.5049199E-04   585.7480       3.623150    
  4.5049199E-04  4.7358900E-04   620.9803       2.287446    
  4.7358900E-04  4.9787102E-04   577.2787       2.451483    
  4.9787102E-04  5.1047403E-04   524.3795       6.444251    
  5.1047403E-04  5.2339700E-04   578.0091       3.673486    
  5.2339700E-04  5.3664698E-04   434.2294       5.411915    
  5.3664698E-04  5.5023201E-04   491.4223       3.394438    
  5.5023201E-04  5.7844300E-04   461.1068       3.342057    
  5.7844300E-04  6.0810102E-04   448.2242       3.601727    
  6.0810102E-04  6.3927902E-04   374.9409       3.007871    
  6.3927902E-04  6.7205500E-04   331.6282       2.508933    
  6.7205500E-04  7.0651202E-04   311.0762       3.560663    
  7.0651202E-04  7.4273598E-04   297.5818       4.072589    
  7.4273598E-04  7.8081700E-04   266.8166       2.916152    
  7.8081700E-04  8.2085002E-04   206.1201       3.971712    
  8.2085002E-04  8.6293602E-04   180.5692       3.697434    
  8.6293602E-04  9.0717903E-04   175.3185       2.939355    
  9.0717903E-04  9.5369201E-04   160.4592       3.808840    
  9.5369201E-04  9.6163998E-04   136.1192       8.778905    
  9.6163998E-04  9.7783399E-04   126.7003       9.701751    
  9.7783399E-04  1.0025901E-03   139.5530       3.999794    
  1.0025901E-03  1.0539900E-03   132.6934       3.255214    
  1.0539900E-03  1.1080300E-03   109.0403       4.451345    
  1.1080300E-03  1.1648400E-03   101.2515       3.557944    
  1.1648400E-03  1.1943300E-03   90.12889       6.399803    
  1.1943300E-03  1.2245600E-03   94.10715       5.480150    
  1.2245600E-03  1.2873500E-03   86.48483       6.143950    
  1.2873500E-03  1.3533500E-03   87.00779       4.613848    
  1.3533500E-03  1.4227401E-03   93.03233       3.607630    
  1.4227401E-03  1.4956900E-03   81.85139       3.894782    
  1.4956900E-03  1.5335500E-03   79.85081       5.134586    
  1.5335500E-03  1.5723699E-03   76.46539       5.642817    
  1.5723699E-03  1.6121800E-03   83.29885       9.559011    
  1.6121800E-03  1.6529900E-03   84.62920       6.142367    
  1.6529900E-03  1.7377400E-03   69.34911       6.805167    
  1.7377400E-03  1.8268300E-03   66.22993       3.456372    
  1.8268300E-03  1.8730800E-03   71.27701       6.052627    
  1.8730800E-03  1.9205000E-03   67.27455       6.534337    
  1.9205000E-03  1.9691200E-03   62.27799       6.493180    
  1.9691200E-03  2.0189700E-03   56.48751       6.842963    
  2.0189700E-03  2.1224800E-03   56.14119       6.953125    
  2.1224800E-03  2.2313001E-03   47.59968       4.974687    
  2.2313001E-03  2.2688799E-03   46.56884       6.770326    
  2.2688799E-03  2.3068599E-03   38.39038       8.094339    
  2.3068599E-03  2.3457000E-03   47.67247       7.039797    
  2.3457000E-03  2.3652499E-03   39.30463       14.51546    
  2.3652499E-03  2.3852000E-03   48.04127       11.86649    
  2.3852000E-03  2.4251300E-03   35.02468       9.309950    
  2.4251300E-03  2.4659701E-03   41.41040       9.459036    
  2.4659701E-03  2.5923999E-03   38.85513       5.457281    
  2.5923999E-03  2.7253199E-03   29.35834       6.992331    
  2.7253199E-03  2.8650500E-03   28.70263       6.500832    
  2.8650500E-03  3.0119400E-03   28.74376       5.592414    
  3.0119400E-03  3.0881900E-03   25.21458       12.78260    
  3.0881900E-03  3.1663701E-03   22.05241       7.827944    
  3.1663701E-03  3.2465300E-03   23.93848       8.521300    
  3.2465300E-03  3.3287101E-03   22.12846       8.459910    
  3.3287101E-03  3.4993801E-03   20.16425       9.829172    
  3.4993801E-03  3.6787901E-03   19.07322       5.519592    
  3.6787901E-03  3.8674099E-03   15.76783       7.843958    
  3.8674099E-03  4.0656999E-03   15.38960       5.696451    
  4.0656999E-03  4.2741499E-03   16.46280       5.150501    
  4.2741499E-03  4.4932901E-03   13.45208       6.774116    
  4.4932901E-03  4.6070400E-03   12.29809       10.53787    
  4.6070400E-03  4.7236700E-03   14.25494       9.698346    
  4.7236700E-03  4.8432499E-03   12.37352       7.483484    
  4.8432499E-03  4.9658502E-03   12.07365       6.997957    
  4.9658502E-03  5.2204598E-03   12.19672       6.280792    
  5.2204598E-03  5.4881200E-03   11.00107       7.788733    
  5.4881200E-03  5.7695000E-03   10.51033       6.424439    
  5.7695000E-03  5.9155500E-03   9.092965       9.648612    
  5.9155500E-03  6.0653100E-03   8.912544       5.273118    
  6.0653100E-03  6.2188501E-03   8.421200       7.633288    
  6.2188501E-03  6.3762800E-03   8.532013       7.401401    
  6.3762800E-03  6.5377001E-03   9.327471       9.167271    
  6.5377001E-03  6.5923799E-03   8.341189       13.88037    
  6.5923799E-03  6.6475999E-03   9.690953       17.53104    
  6.6475999E-03  6.7031998E-03   9.009969       21.85506    
  6.7031998E-03  6.8728901E-03   7.664946       9.734711    
  6.8728901E-03  7.0468802E-03   6.452666       10.08230    
  7.0468802E-03  7.2252699E-03   5.136675       12.64011    
  7.2252699E-03  7.4081798E-03   6.471873       7.947988    
  7.4081798E-03  7.5957198E-03   6.590938       9.631516    
  7.5957198E-03  7.7880099E-03   5.820091       8.634563    
  7.7880099E-03  7.9851598E-03   5.874381       11.50435    
  7.9851598E-03  8.1873098E-03   5.948905       10.39205    
  8.1873098E-03  8.3945701E-03   5.904737       8.871571    
  8.3945701E-03  8.6070802E-03   4.831479       6.661542    
  8.6070802E-03  8.8249696E-03   4.769400       10.37549    
  8.8249696E-03  9.0483697E-03   4.997825       9.209337    
  9.0483697E-03  9.2774397E-03   5.410179       11.81498    
  9.2774397E-03  9.5122904E-03   4.064281       10.96309    
  9.5122904E-03  9.7530996E-03   4.479586       11.25237    
  9.7530996E-03  9.9999998E-03   4.886344       9.044311    
  9.9999998E-03  1.0253200E-02   4.019799       9.748700    
  1.0253200E-02  1.0512700E-02   4.771211       9.510865    
  1.0512700E-02  1.0778800E-02   4.007251       13.40296    
  1.0778800E-02  1.1051700E-02   5.104455       10.15198    
  1.1051700E-02  1.1331500E-02   3.934956       7.918021    
  1.1331500E-02  1.1618300E-02   3.692600       12.00664    
  1.1618300E-02  1.1912500E-02   3.741786       9.226684    
  1.1912500E-02  1.2214000E-02   3.256062       11.52619    
  1.2214000E-02  1.2523200E-02   2.644914       14.18237    
  1.2523200E-02  1.2840200E-02   3.578792       11.47919    
  1.2840200E-02  1.3165300E-02   3.163113       9.161535    
  1.3165300E-02  1.3498600E-02   2.070786       19.65092    
  1.3498600E-02  1.3840300E-02   2.753930       10.64909    
  1.3840300E-02  1.4190700E-02   2.173779       11.35121    
  1.4190700E-02  1.4549900E-02   3.010459       16.08950    
  1.4549900E-02  1.4918300E-02   2.808887       14.65576    
  1.4918300E-02  1.5295900E-02   2.414943       16.05673    
  1.5295900E-02  1.5683100E-02   2.095921       13.98618    
  1.5683100E-02  1.6080100E-02   2.476333       8.262693    
  1.6080100E-02  1.6487200E-02   2.380198       8.772142    
  1.6487200E-02  1.6904600E-02   2.161955       11.82848    
  1.6904600E-02  1.7332500E-02   1.322072       15.50911    
  1.7332500E-02  1.7771300E-02   1.998655       11.76008    
  1.7771300E-02  1.8221200E-02   1.823290       9.128284    
  1.8221200E-02  1.8682500E-02   1.805222       12.54014    
  1.8682500E-02  1.9155400E-02   1.470279       20.52194    
  1.9155400E-02  1.9640300E-02   1.967484       7.822600    
  1.9640300E-02  2.0000000E-02   1.247864       17.57255    
