 # Detector n:            1   HeIInflux 
 # N. of energy intervals         260
  1.0000100E-14  2.0000000E-13  9.4123917E+10   1.527408    
  2.0000000E-13  2.9297300E-13  2.0568642E+11   1.476601    
  2.9297300E-13  4.2916701E-13  2.9095264E+11   1.072491    
  4.2916701E-13  6.2867300E-13  4.1007147E+11  0.7108163    
  6.2867300E-13  9.2092198E-13  5.6130214E+11  0.5208558    
  9.2092198E-13  1.3490300E-12  7.4981579E+11  0.3702340    
  1.3490300E-12  1.9761499E-12  9.6899065E+11  0.2940560    
  1.9761499E-12  2.8947901E-12  1.2177484E+12  0.2118194    
  2.8947901E-12  4.2404799E-12  1.4453961E+12  0.1629371    
  4.2404799E-12  6.2117499E-12  1.5896942E+12  0.1388961    
  6.2117499E-12  9.0993801E-12  1.6081962E+12  0.1356552    
  9.0993801E-12  1.3329400E-11  1.4480174E+12  0.1181496    
  1.3329400E-11  1.9525799E-11  1.1249848E+12  0.1145614    
  1.9525799E-11  2.8602700E-11  7.2734520E+11  0.1204073    
  2.8602700E-11  4.1899099E-11  3.9105217E+11  0.1277004    
  4.1899099E-11  6.1376598E-11  1.8872069E+11  0.1353175    
  6.1376598E-11  8.9908601E-11  8.3142566E+10  0.1518487    
  8.9908601E-11  1.3170399E-10  3.1116069E+10  0.2020517    
  1.3170399E-10  1.9292901E-10  1.1006073E+10  0.2679292    
  1.9292901E-10  2.8261499E-10  4.8062884E+09  0.3399677    
  2.8261499E-10  4.1399401E-10  2.7341745E+09  0.3556810    
  4.1399401E-10  5.3157900E-10  1.8986106E+09  0.4539756    
  5.3157900E-10  6.2506200E-10  1.5077719E+09  0.5572367    
  6.2506200E-10  6.8256001E-10  1.3288282E+09  0.8243219    
  6.8256001E-10  8.3368101E-10  1.1197556E+09  0.5418850    
  8.3368101E-10  8.7642499E-10  9.7476333E+08   1.060932    
  8.7642499E-10  1.1253500E-09  8.2683546E+08  0.4915051    
  1.1253500E-09  1.4449800E-09  6.3195258E+08  0.4686471    
  1.4449800E-09  1.8553900E-09  4.7705030E+08  0.4832793    
  1.8553900E-09  2.3823701E-09  3.6676864E+08  0.4987697    
  2.3823701E-09  3.0590199E-09  2.8300666E+08  0.4988116    
  3.0590199E-09  3.9278598E-09  2.1524472E+08  0.4795453    
  3.9278598E-09  5.0434799E-09  1.6640592E+08  0.4699488    
  5.0434799E-09  6.4759500E-09  1.2798954E+08  0.5019843    
  6.4759500E-09  8.3152898E-09  9.7772128E+07  0.4839901    
  8.3152898E-09  1.0677000E-08  7.5962208E+07  0.5448892    
  1.0677000E-08  1.3709600E-08  5.8086124E+07  0.5247666    
  1.3709600E-08  1.7603501E-08  4.4040672E+07  0.5475684    
  1.7603501E-08  2.2603301E-08  3.3860080E+07  0.4786628    
  2.2603301E-08  2.9023200E-08  2.5989092E+07  0.5665978    
  2.9023200E-08  3.7266499E-08  1.9934702E+07  0.5550634    
  3.7266499E-08  4.7851199E-08  1.5177840E+07  0.5627519    
  4.7851199E-08  6.1442101E-08  1.1592306E+07  0.5387471    
  6.1442101E-08  7.8893301E-08   8900220.      0.5505345    
  7.8893301E-08  1.0130100E-07   6810760.      0.5460356    
  1.0130100E-07  1.3007300E-07   5153548.      0.5985171    
  1.3007300E-07  1.6701701E-07   3952790.      0.5765347    
  1.6701701E-07  2.1445400E-07   2965881.      0.5857865    
  2.1445400E-07  2.7536399E-07   2261967.      0.5838742    
  2.7536399E-07  3.5357499E-07   1689910.      0.5962594    
  3.5357499E-07  4.5399901E-07   1262559.      0.5962269    
  4.5399901E-07  5.8294700E-07   974991.2      0.6114104    
  5.8294700E-07  7.4851800E-07   738505.7      0.5769519    
  7.4851800E-07  9.6111603E-07   558421.3      0.6132079    
  9.6111603E-07  1.2341000E-06   416649.3      0.6723205    
  1.2341000E-06  1.3638900E-06   341432.7      0.9453764    
  1.3638900E-06  1.5073300E-06   301275.5       1.080711    
  1.5073300E-06  1.5846100E-06   275663.1       1.461133    
  1.5846100E-06  1.6658601E-06   263484.2       1.398625    
  1.6658601E-06  1.8410600E-06   246087.9       1.020493    
  1.8410600E-06  2.0346799E-06   226244.9       1.066796    
  2.0346799E-06  2.2486699E-06   179985.3       1.067289    
  2.2486699E-06  2.4851699E-06   168227.1      0.9868959    
  2.4851699E-06  2.6125899E-06   152388.3       1.489977    
  2.6125899E-06  2.7465401E-06   139726.8       1.563520    
  2.7465401E-06  2.8634900E-06   140489.6       1.561827    
  2.8634900E-06  3.0353899E-06   129651.0       1.426957    
  3.0353899E-06  3.3546301E-06   120506.2       1.102235    
  3.3546301E-06  3.7074401E-06   109012.5       1.075505    
  3.7074401E-06  4.0973500E-06   94959.95       1.132120    
  4.0973500E-06  4.3074201E-06   86035.41       1.549306    
  4.3074201E-06  4.5282700E-06   81810.74       1.435566    
  4.5282700E-06  5.0045101E-06   74093.77       1.149649    
  5.0045101E-06  5.5308401E-06   74996.31       1.069337    
  5.5308401E-06  6.2672698E-06   47964.77       1.122782    
  6.2672698E-06  7.1017398E-06   50208.44       1.035427    
  7.1017398E-06  8.0473301E-06   43602.18       1.046000    
  8.0473301E-06  9.1188203E-06   37206.21       1.072473    
  9.1188203E-06  1.0333000E-05   32087.18       1.042089    
  1.0333000E-05  1.1708800E-05   27848.97       1.078384    
  1.1708800E-05  1.3267800E-05   24313.55       1.055509    
  1.3267800E-05  1.5034400E-05   19820.34       1.074557    
  1.5034400E-05  1.7036200E-05   17008.06       1.182209    
  1.7036200E-05  1.9304500E-05   14556.89       1.221465    
  1.9304500E-05  2.1334799E-05   12379.42       1.321217    
  2.1334799E-05  2.1874899E-05   12058.12       2.509611    
  2.1874899E-05  2.3578599E-05   11244.54       1.427942    
  2.3578599E-05  2.4175501E-05   10309.86       2.530129    
  2.4175501E-05  2.4787500E-05   10353.40       2.518658    
  2.4787500E-05  2.6058400E-05   10002.59       1.903712    
  2.6058400E-05  2.8087899E-05   9505.360       1.524641    
  2.8087899E-05  3.1827800E-05   10036.57       1.095223    
  3.1827800E-05  3.4306700E-05   5786.981       1.740590    
  3.4306700E-05  3.5175199E-05   2566.902       4.494768    
  3.5175199E-05  3.6065601E-05   2571.334       4.161837    
  3.6065601E-05  4.0867701E-05   3548.910       1.692494    
  4.0867701E-05  4.6309200E-05   4184.595       1.325726    
  4.6309200E-05  5.2475199E-05   3926.202       1.350001    
  5.2475199E-05  5.6562199E-05   3519.565       1.700256    
  5.6562199E-05  5.9462200E-05   3260.267       2.111903    
  5.9462200E-05  6.2510902E-05   3217.120       2.054316    
  6.2510902E-05  6.7379500E-05   2997.845       1.695519    
  6.7379500E-05  7.6350902E-05   2953.494       1.187181    
  7.6350902E-05  8.6516899E-05   1980.040       1.430589    
  8.6516899E-05  9.8036500E-05   1052.662       1.709426    
  9.8036500E-05  1.1109000E-04   1424.062       1.439695    
  1.1109000E-04  1.1678600E-04   1412.950       2.246609    
  1.1678600E-04  1.2277300E-04   966.8797       2.610631    
  1.2277300E-04  1.2906799E-04   1448.005       2.195184    
  1.2906799E-04  1.3568600E-04   1436.883       1.987576    
  1.3568600E-04  1.4264201E-04   1051.350       2.386775    
  1.4264201E-04  1.4995600E-04   798.1342       2.553434    
  1.4995600E-04  1.5764400E-04   715.7031       2.547430    
  1.5764400E-04  1.6163501E-04   562.3249       4.351521    
  1.6163501E-04  1.6572700E-04   658.9767       3.656690    
  1.6572700E-04  1.6992200E-04   725.9171       3.866558    
  1.6992200E-04  1.7422400E-04   744.0119       3.764519    
  1.7422400E-04  1.8315599E-04   769.8852       2.393327    
  1.8315599E-04  1.9254700E-04   758.3566       2.412609    
  1.9254700E-04  2.0241900E-04   705.5729       2.428498    
  2.0241900E-04  2.1279699E-04   518.6472       2.496938    
  2.1279699E-04  2.2370800E-04   555.8281       2.469546    
  2.2370800E-04  2.3517800E-04   528.3906       2.683771    
  2.3517800E-04  2.4723500E-04   521.3829       2.478297    
  2.4723500E-04  2.5991100E-04   530.1479       2.440950    
  2.5991100E-04  2.7323700E-04   571.1866       2.336881    
  2.7323700E-04  2.8015400E-04   488.5893       3.188913    
  2.8015400E-04  2.8724599E-04   373.9713       3.543848    
  2.8724599E-04  2.9451799E-04   403.2843       3.629337    
  2.9451799E-04  3.0197401E-04   386.7031       3.635219    
  3.0197401E-04  3.0961799E-04   374.6646       3.541044    
  3.0961799E-04  3.1745600E-04   346.3222       3.637569    
  3.1745600E-04  3.3373301E-04   363.7527       2.606241    
  3.3373301E-04  3.5084400E-04   369.3742       2.500229    
  3.5084400E-04  3.6883200E-04   314.2241       2.472069    
  3.6883200E-04  3.8774201E-04   281.7578       2.653627    
  3.8774201E-04  4.0762199E-04   264.5013       2.635741    
  4.0762199E-04  4.2852099E-04   241.9891       2.657132    
  4.2852099E-04  4.5049199E-04   215.0237       2.620578    
  4.5049199E-04  4.7358900E-04   213.7513       2.658491    
  4.7358900E-04  4.9787102E-04   202.8484       2.752848    
  4.9787102E-04  5.1047403E-04   216.5629       3.660854    
  5.1047403E-04  5.2339700E-04   188.7595       4.053366    
  5.2339700E-04  5.3664698E-04   159.5844       3.800328    
  5.3664698E-04  5.5023201E-04   167.8256       3.734083    
  5.5023201E-04  5.7844300E-04   161.7331       2.535505    
  5.7844300E-04  6.0810102E-04   147.3578       2.750421    
  6.0810102E-04  6.3927902E-04   132.5109       2.610634    
  6.3927902E-04  6.7205500E-04   112.7554       2.723087    
  6.7205500E-04  7.0651202E-04   111.9078       2.521217    
  7.0651202E-04  7.4273598E-04   96.57289       2.882167    
  7.4273598E-04  7.8081700E-04   87.54033       2.772374    
  7.8081700E-04  8.2085002E-04   69.21812       2.820216    
  8.2085002E-04  8.6293602E-04   63.42097       2.928553    
  8.6293602E-04  9.0717903E-04   54.65999       3.031253    
  9.0717903E-04  9.5369201E-04   52.91506       2.791909    
  9.5369201E-04  9.6163998E-04   51.01167       5.837819    
  9.6163998E-04  9.7783399E-04   45.12463       4.361412    
  9.7783399E-04  1.0025901E-03   42.84620       3.855763    
  1.0025901E-03  1.0539900E-03   42.29020       2.729403    
  1.0539900E-03  1.1080300E-03   42.00739       2.689486    
  1.1080300E-03  1.1648400E-03   37.94276       2.817193    
  1.1648400E-03  1.1943300E-03   37.59777       3.576078    
  1.1943300E-03  1.2245600E-03   36.02932       3.666461    
  1.2245600E-03  1.2873500E-03   38.06732       2.569658    
  1.2873500E-03  1.3533500E-03   38.93364       2.570219    
  1.3533500E-03  1.4227401E-03   36.67743       2.727746    
  1.4227401E-03  1.4956900E-03   34.13956       2.710498    
  1.4956900E-03  1.5335500E-03   36.03692       3.584281    
  1.5335500E-03  1.5723699E-03   37.12458       3.762727    
  1.5723699E-03  1.6121800E-03   35.52468       3.647794    
  1.6121800E-03  1.6529900E-03   38.25177       3.799857    
  1.6529900E-03  1.7377400E-03   37.08207       2.810003    
  1.7377400E-03  1.8268300E-03   35.55928       2.663105    
  1.8268300E-03  1.8730800E-03   34.77643       3.889422    
  1.8730800E-03  1.9205000E-03   33.38471       3.801214    
  1.9205000E-03  1.9691200E-03   32.82279       3.721161    
  1.9691200E-03  2.0189700E-03   33.89899       3.499940    
  2.0189700E-03  2.1224800E-03   32.31140       2.640165    
  2.1224800E-03  2.2313001E-03   31.96747       2.666540    
  2.2313001E-03  2.2688799E-03   30.69474       4.802268    
  2.2688799E-03  2.3068599E-03   28.54613       4.659650    
  2.3068599E-03  2.3457000E-03   31.58704       4.520014    
  2.3457000E-03  2.3652499E-03   33.16781       6.989496    
  2.3652499E-03  2.3852000E-03   34.18818       6.695348    
  2.3852000E-03  2.4251300E-03   27.52199       4.723475    
  2.4251300E-03  2.4659701E-03   27.47433       4.733841    
  2.4659701E-03  2.5923999E-03   26.16874       2.899580    
  2.5923999E-03  2.7253199E-03   25.48267       3.019398    
  2.7253199E-03  2.8650500E-03   21.39649       2.944946    
  2.8650500E-03  3.0119400E-03   22.31447       2.981992    
  3.0119400E-03  3.0881900E-03   19.51566       4.008418    
  3.0881900E-03  3.1663701E-03   19.31923       4.254543    
  3.1663701E-03  3.2465300E-03   18.13385       4.014490    
  3.2465300E-03  3.3287101E-03   18.90440       4.613641    
  3.3287101E-03  3.4993801E-03   17.84585       3.179838    
  3.4993801E-03  3.6787901E-03   16.39293       3.093341    
  3.6787901E-03  3.8674099E-03   15.75727       3.129418    
  3.8674099E-03  4.0656999E-03   16.17606       2.984045    
  4.0656999E-03  4.2741499E-03   15.48829       3.056148    
  4.2741499E-03  4.4932901E-03   14.48158       3.157102    
  4.4932901E-03  4.6070400E-03   14.06059       4.400206    
  4.6070400E-03  4.7236700E-03   13.08218       4.763258    
  4.7236700E-03  4.8432499E-03   11.53599       4.574565    
  4.8432499E-03  4.9658502E-03   12.88575       4.660026    
  4.9658502E-03  5.2204598E-03   12.14757       3.099989    
  5.2204598E-03  5.4881200E-03   11.43184       3.395786    
  5.4881200E-03  5.7695000E-03   10.78491       3.235613    
  5.7695000E-03  5.9155500E-03   10.17335       4.080280    
  5.9155500E-03  6.0653100E-03   9.561908       4.491208    
  6.0653100E-03  6.2188501E-03   9.730368       4.665201    
  6.2188501E-03  6.3762800E-03   10.07229       4.364657    
  6.3762800E-03  6.5377001E-03   8.423544       4.623365    
  6.5377001E-03  6.5923799E-03   8.599770       7.857665    
  6.5923799E-03  6.6475999E-03   8.523141       7.535116    
  6.6475999E-03  6.7031998E-03   8.456875       7.706495    
  6.7031998E-03  6.8728901E-03   7.749587       4.483271    
  6.8728901E-03  7.0468802E-03   8.540013       4.201313    
  7.0468802E-03  7.2252699E-03   8.163441       4.721994    
  7.2252699E-03  7.4081798E-03   8.594326       4.734802    
  7.4081798E-03  7.5957198E-03   7.894293       4.710213    
  7.5957198E-03  7.7880099E-03   7.331552       4.725046    
  7.7880099E-03  7.9851598E-03   7.066804       4.847732    
  7.9851598E-03  8.1873098E-03   6.923241       4.819555    
  8.1873098E-03  8.3945701E-03   6.717858       4.768729    
  8.3945701E-03  8.6070802E-03   6.888750       5.238542    
  8.6070802E-03  8.8249696E-03   5.730979       5.452578    
  8.8249696E-03  9.0483697E-03   5.847048       4.707984    
  9.0483697E-03  9.2774397E-03   5.993613       4.940045    
  9.2774397E-03  9.5122904E-03   5.482591       4.801340    
  9.5122904E-03  9.7530996E-03   5.542611       4.942419    
  9.7530996E-03  9.9999998E-03   5.297410       4.733266    
  9.9999998E-03  1.0253200E-02   5.688687       5.096850    
  1.0253200E-02  1.0512700E-02   5.389552       5.049307    
  1.0512700E-02  1.0778800E-02   5.537912       4.735403    
  1.0778800E-02  1.1051700E-02   4.857387       5.178829    
  1.1051700E-02  1.1331500E-02   4.533062       5.073283    
  1.1331500E-02  1.1618300E-02   4.830636       4.757063    
  1.1618300E-02  1.1912500E-02   4.100183       5.309473    
  1.1912500E-02  1.2214000E-02   4.404473       5.173466    
  1.2214000E-02  1.2523200E-02   4.604469       5.259601    
  1.2523200E-02  1.2840200E-02   3.838543       5.232744    
  1.2840200E-02  1.3165300E-02   4.016306       4.986006    
  1.3165300E-02  1.3498600E-02   3.998937       5.211020    
  1.3498600E-02  1.3840300E-02   4.122042       4.997375    
  1.3840300E-02  1.4190700E-02   3.723070       5.111196    
  1.4190700E-02  1.4549900E-02   3.393253       5.528618    
  1.4549900E-02  1.4918300E-02   3.529832       5.182048    
  1.4918300E-02  1.5295900E-02   3.459506       5.247810    
  1.5295900E-02  1.5683100E-02   3.075173       5.236690    
  1.5683100E-02  1.6080100E-02   2.678045       5.620141    
  1.6080100E-02  1.6487200E-02   3.193784       5.582277    
  1.6487200E-02  1.6904600E-02   2.847527       5.966721    
  1.6904600E-02  1.7332500E-02   2.837849       5.529994    
  1.7332500E-02  1.7771300E-02   2.655064       5.065985    
  1.7771300E-02  1.8221200E-02   2.756621       5.354788    
  1.8221200E-02  1.8682500E-02   2.690322       5.010360    
  1.8682500E-02  1.9155400E-02   2.453112       5.784560    
  1.9155400E-02  1.9640300E-02   2.321719       5.747478    
  1.9640300E-02  2.0000000E-02   2.679690       6.028952    
