 # Detector n:            1   HeIInflux 
 # N. of energy intervals         260
  1.0000100E-14  2.0000000E-13  8.5602525E+10   1.038063    
  2.0000000E-13  2.9297300E-13  1.8922108E+11   1.000667    
  2.9297300E-13  4.2916701E-13  2.6463006E+11  0.6710935    
  4.2916701E-13  6.2867300E-13  3.7200164E+11  0.4891787    
  6.2867300E-13  9.2092198E-13  5.1164810E+11  0.3479269    
  9.2092198E-13  1.3490300E-12  6.8258038E+11  0.2547748    
  1.3490300E-12  1.9761499E-12  8.8353702E+11  0.1860440    
  1.9761499E-12  2.8947901E-12  1.1026840E+12  0.1505199    
  2.8947901E-12  4.2404799E-12  1.3085521E+12  0.1195397    
  4.2404799E-12  6.2117499E-12  1.4440594E+12  9.7624250E-02
  6.2117499E-12  9.0993801E-12  1.4592039E+12  8.3758138E-02
  9.0993801E-12  1.3329400E-11  1.3155106E+12  7.6759882E-02
  1.3329400E-11  1.9525799E-11  1.0207981E+12  7.4503645E-02
  1.9525799E-11  2.8602700E-11  6.6092388E+11  7.5194478E-02
  2.8602700E-11  4.1899099E-11  3.5657866E+11  8.2131505E-02
  4.1899099E-11  6.1376598E-11  1.7170019E+11  8.7579317E-02
  6.1376598E-11  8.9908601E-11  7.5773428E+10  0.1027592    
  8.9908601E-11  1.3170399E-10  2.8561383E+10  0.1349573    
  1.3170399E-10  1.9292901E-10  1.0149922E+10  0.1767354    
  1.9292901E-10  2.8261499E-10  4.4703980E+09  0.2170440    
  2.8261499E-10  4.1399401E-10  2.5636928E+09  0.2333914    
  4.1399401E-10  5.3157900E-10  1.7925838E+09  0.3053588    
  5.3157900E-10  6.2506200E-10  1.4101992E+09  0.3669060    
  6.2506200E-10  6.8256001E-10  1.2321330E+09  0.5138327    
  6.8256001E-10  8.3368101E-10  1.0490907E+09  0.3461482    
  8.3368101E-10  8.7642499E-10  9.1587552E+08  0.6803697    
  8.7642499E-10  1.1253500E-09  7.7528877E+08  0.3172028    
  1.1253500E-09  1.4449800E-09  5.8978323E+08  0.3131256    
  1.4449800E-09  1.8553900E-09  4.5183427E+08  0.3252668    
  1.8553900E-09  2.3823701E-09  3.4563709E+08  0.3199721    
  2.3823701E-09  3.0590199E-09  2.6646680E+08  0.3162779    
  3.0590199E-09  3.9278598E-09  2.0193782E+08  0.3179334    
  3.9278598E-09  5.0434799E-09  1.5601730E+08  0.3180231    
  5.0434799E-09  6.4759500E-09  1.2072962E+08  0.3305044    
  6.4759500E-09  8.3152898E-09  9.2550152E+07  0.3304384    
  8.3152898E-09  1.0677000E-08  7.1475744E+07  0.3252722    
  1.0677000E-08  1.3709600E-08  5.4708160E+07  0.3307685    
  1.3709600E-08  1.7603501E-08  4.2014424E+07  0.3425331    
  1.7603501E-08  2.2603301E-08  3.2426064E+07  0.3456927    
  2.2603301E-08  2.9023200E-08  2.4722088E+07  0.3495947    
  2.9023200E-08  3.7266499E-08  1.8908948E+07  0.3617819    
  3.7266499E-08  4.7851199E-08  1.4399776E+07  0.3662086    
  4.7851199E-08  6.1442101E-08  1.1021314E+07  0.3571620    
  6.1442101E-08  7.8893301E-08   8429595.      0.3508003    
  7.8893301E-08  1.0130100E-07   6410990.      0.3604177    
  1.0130100E-07  1.3007300E-07   4912263.      0.3441472    
  1.3007300E-07  1.6701701E-07   3736333.      0.3622248    
  1.6701701E-07  2.1445400E-07   2843938.      0.3654877    
  2.1445400E-07  2.7536399E-07   2154735.      0.3926695    
  2.7536399E-07  3.5357499E-07   1641390.      0.3909036    
  3.5357499E-07  4.5399901E-07   1217928.      0.3832529    
  4.5399901E-07  5.8294700E-07   923902.8      0.3827379    
  5.8294700E-07  7.4851800E-07   711100.5      0.3964719    
  7.4851800E-07  9.6111603E-07   539697.2      0.3958993    
  9.6111603E-07  1.2341000E-06   402185.4      0.4137100    
  1.2341000E-06  1.3638900E-06   327347.2      0.6528946    
  1.3638900E-06  1.5073300E-06   295392.4      0.6224984    
  1.5073300E-06  1.5846100E-06   266416.9      0.9192321    
  1.5846100E-06  1.6658601E-06   254077.8      0.9063041    
  1.6658601E-06  1.8410600E-06   234269.7      0.6770456    
  1.8410600E-06  2.0346799E-06   217918.4      0.6602399    
  2.0346799E-06  2.2486699E-06   170825.0      0.6900790    
  2.2486699E-06  2.4851699E-06   165484.0      0.6933023    
  2.4851699E-06  2.6125899E-06   144551.0      0.9295910    
  2.6125899E-06  2.7465401E-06   135713.2       1.023612    
  2.7465401E-06  2.8634900E-06   137899.4       1.052676    
  2.8634900E-06  3.0353899E-06   128966.7      0.8671687    
  3.0353899E-06  3.3546301E-06   117393.1      0.6642901    
  3.3546301E-06  3.7074401E-06   103623.4      0.6956442    
  3.7074401E-06  4.0973500E-06   92391.90      0.6581735    
  4.0973500E-06  4.3074201E-06   83260.34      0.9694568    
  4.3074201E-06  4.5282700E-06   78591.12      0.9673697    
  4.5282700E-06  5.0045101E-06   73111.47      0.6843026    
  5.0045101E-06  5.5308401E-06   71242.39      0.6538420    
  5.5308401E-06  6.2672698E-06   46416.70      0.7000928    
  6.2672698E-06  7.1017398E-06   48802.67      0.6616375    
  7.1017398E-06  8.0473301E-06   41950.64      0.6776477    
  8.0473301E-06  9.1188203E-06   36173.74      0.6652218    
  9.1188203E-06  1.0333000E-05   31112.96      0.6587580    
  1.0333000E-05  1.1708800E-05   26892.20      0.6875210    
  1.1708800E-05  1.3267800E-05   23115.82      0.6972436    
  1.3267800E-05  1.5034400E-05   19703.34      0.7202149    
  1.5034400E-05  1.7036200E-05   16609.97      0.7322886    
  1.7036200E-05  1.9304500E-05   14316.62      0.7158286    
  1.9304500E-05  2.1334799E-05   12601.25      0.8207698    
  2.1334799E-05  2.1874899E-05   11505.64       1.642441    
  2.1874899E-05  2.3578599E-05   11136.30      0.9183772    
  2.3578599E-05  2.4175501E-05   10311.91       1.649079    
  2.4175501E-05  2.4787500E-05   10087.51       1.654081    
  2.4787500E-05  2.6058400E-05   9490.148       1.147918    
  2.6058400E-05  2.8087899E-05   9496.737      0.9700260    
  2.8087899E-05  3.1827800E-05   9896.846      0.6584271    
  3.1827800E-05  3.4306700E-05   5549.114       1.128131    
  3.4306700E-05  3.5175199E-05   2591.643       2.606736    
  3.5175199E-05  3.6065601E-05   2540.234       2.653561    
  3.6065601E-05  4.0867701E-05   3441.021       1.038894    
  4.0867701E-05  4.6309200E-05   4177.606      0.8982674    
  4.6309200E-05  5.2475199E-05   3904.855      0.8596920    
  5.2475199E-05  5.6562199E-05   3390.378       1.075258    
  5.6562199E-05  5.9462200E-05   3272.790       1.273860    
  5.9462200E-05  6.2510902E-05   3112.468       1.312257    
  6.2510902E-05  6.7379500E-05   2966.524       1.082450    
  6.7379500E-05  7.6350902E-05   2937.073      0.8199744    
  7.6350902E-05  8.6516899E-05   1964.478      0.9041961    
  8.6516899E-05  9.8036500E-05   1082.285       1.177157    
  9.8036500E-05  1.1109000E-04   1408.924      0.9132149    
  1.1109000E-04  1.1678600E-04   1435.278       1.475317    
  1.1678600E-04  1.2277300E-04   977.4597       1.750070    
  1.2277300E-04  1.2906799E-04   1481.437       1.283277    
  1.2906799E-04  1.3568600E-04   1449.149       1.289858    
  1.3568600E-04  1.4264201E-04   1022.592       1.467892    
  1.4264201E-04  1.4995600E-04   762.9609       1.633432    
  1.4995600E-04  1.5764400E-04   710.5662       1.629164    
  1.5764400E-04  1.6163501E-04   567.7080       2.550047    
  1.6163501E-04  1.6572700E-04   712.5513       2.327331    
  1.6572700E-04  1.6992200E-04   721.8131       2.227753    
  1.6992200E-04  1.7422400E-04   752.3484       2.255175    
  1.7422400E-04  1.8315599E-04   770.0734       1.491625    
  1.8315599E-04  1.9254700E-04   767.0201       1.418050    
  1.9254700E-04  2.0241900E-04   698.8896       1.474935    
  2.0241900E-04  2.1279699E-04   532.0958       1.716782    
  2.1279699E-04  2.2370800E-04   539.5759       1.624788    
  2.2370800E-04  2.3517800E-04   537.4799       1.552403    
  2.3517800E-04  2.4723500E-04   549.1093       1.495876    
  2.4723500E-04  2.5991100E-04   522.1192       1.486580    
  2.5991100E-04  2.7323700E-04   562.2734       1.462036    
  2.7323700E-04  2.8015400E-04   496.6855       2.048517    
  2.8015400E-04  2.8724599E-04   395.2677       2.280673    
  2.8724599E-04  2.9451799E-04   386.0601       2.234979    
  2.9451799E-04  3.0197401E-04   403.2032       2.173133    
  3.0197401E-04  3.0961799E-04   390.8841       2.242748    
  3.0961799E-04  3.1745600E-04   355.9072       2.371545    
  3.1745600E-04  3.3373301E-04   360.9727       1.497663    
  3.3373301E-04  3.5084400E-04   366.5887       1.495064    
  3.5084400E-04  3.6883200E-04   307.9673       1.619596    
  3.6883200E-04  3.8774201E-04   285.6235       1.731704    
  3.8774201E-04  4.0762199E-04   284.0325       1.540163    
  4.0762199E-04  4.2852099E-04   234.4455       1.672444    
  4.2852099E-04  4.5049199E-04   214.4100       1.649430    
  4.5049199E-04  4.7358900E-04   207.3442       1.605144    
  4.7358900E-04  4.9787102E-04   213.3727       1.568563    
  4.9787102E-04  5.1047403E-04   203.0724       2.374084    
  5.1047403E-04  5.2339700E-04   195.7185       2.404943    
  5.2339700E-04  5.3664698E-04   165.8487       2.452282    
  5.3664698E-04  5.5023201E-04   166.6970       2.304216    
  5.5023201E-04  5.7844300E-04   160.0841       1.662267    
  5.7844300E-04  6.0810102E-04   146.9012       1.648791    
  6.0810102E-04  6.3927902E-04   135.0896       1.612273    
  6.3927902E-04  6.7205500E-04   114.2167       1.736700    
  6.7205500E-04  7.0651202E-04   115.1655       1.676535    
  7.0651202E-04  7.4273598E-04   98.95162       1.703135    
  7.4273598E-04  7.8081700E-04   85.40985       1.694846    
  7.8081700E-04  8.2085002E-04   69.35710       1.787526    
  8.2085002E-04  8.6293602E-04   62.62540       1.762725    
  8.6293602E-04  9.0717903E-04   58.16387       1.683006    
  9.0717903E-04  9.5369201E-04   51.48029       1.668569    
  9.5369201E-04  9.6163998E-04   47.04818       4.054083    
  9.6163998E-04  9.7783399E-04   46.71421       2.893248    
  9.7783399E-04  1.0025901E-03   44.63250       2.374239    
  1.0025901E-03  1.0539900E-03   43.02826       1.655698    
  1.0539900E-03  1.1080300E-03   42.19232       1.710277    
  1.1080300E-03  1.1648400E-03   39.98318       1.712944    
  1.1648400E-03  1.1943300E-03   37.21036       2.244172    
  1.1943300E-03  1.2245600E-03   38.89861       2.304027    
  1.2245600E-03  1.2873500E-03   36.66434       1.724252    
  1.2873500E-03  1.3533500E-03   37.21411       1.704259    
  1.3533500E-03  1.4227401E-03   39.08955       1.692348    
  1.4227401E-03  1.4956900E-03   37.48461       1.726057    
  1.4956900E-03  1.5335500E-03   36.85465       2.273082    
  1.5335500E-03  1.5723699E-03   37.29601       2.302794    
  1.5723699E-03  1.6121800E-03   37.46677       2.319447    
  1.6121800E-03  1.6529900E-03   36.03992       2.304174    
  1.6529900E-03  1.7377400E-03   36.90802       1.722856    
  1.7377400E-03  1.8268300E-03   36.53071       1.624793    
  1.8268300E-03  1.8730800E-03   34.12127       2.375381    
  1.8730800E-03  1.9205000E-03   32.50753       2.373854    
  1.9205000E-03  1.9691200E-03   32.27290       2.429762    
  1.9691200E-03  2.0189700E-03   32.56260       2.409182    
  2.0189700E-03  2.1224800E-03   31.31719       1.736176    
  2.1224800E-03  2.2313001E-03   31.14725       1.702147    
  2.2313001E-03  2.2688799E-03   29.92207       2.945362    
  2.2688799E-03  2.3068599E-03   29.84947       2.949542    
  2.3068599E-03  2.3457000E-03   28.94022       3.003572    
  2.3457000E-03  2.3652499E-03   29.07798       4.056769    
  2.3652499E-03  2.3852000E-03   29.96462       3.922664    
  2.3852000E-03  2.4251300E-03   31.39242       2.971238    
  2.4251300E-03  2.4659701E-03   30.17942       2.988807    
  2.4659701E-03  2.5923999E-03   24.91132       1.860446    
  2.5923999E-03  2.7253199E-03   24.74358       1.832985    
  2.7253199E-03  2.8650500E-03   21.66016       1.863275    
  2.8650500E-03  3.0119400E-03   21.04350       1.983085    
  3.0119400E-03  3.0881900E-03   20.13971       2.569005    
  3.0881900E-03  3.1663701E-03   18.84326       2.630662    
  3.1663701E-03  3.2465300E-03   18.80835       2.643239    
  3.2465300E-03  3.3287101E-03   18.14520       2.811865    
  3.3287101E-03  3.4993801E-03   17.26178       2.007092    
  3.4993801E-03  3.6787901E-03   16.27285       1.997226    
  3.6787901E-03  3.8674099E-03   15.37731       1.984454    
  3.8674099E-03  4.0656999E-03   15.00484       2.094763    
  4.0656999E-03  4.2741499E-03   14.96208       1.940772    
  4.2741499E-03  4.4932901E-03   13.51676       1.986381    
  4.4932901E-03  4.6070400E-03   13.41732       2.870727    
  4.6070400E-03  4.7236700E-03   13.50066       2.733217    
  4.7236700E-03  4.8432499E-03   12.94175       2.899266    
  4.8432499E-03  4.9658502E-03   12.11693       2.876151    
  4.9658502E-03  5.2204598E-03   11.85565       2.111767    
  5.2204598E-03  5.4881200E-03   11.74128       1.922827    
  5.4881200E-03  5.7695000E-03   10.46662       2.056406    
  5.7695000E-03  5.9155500E-03   10.03570       2.869073    
  5.9155500E-03  6.0653100E-03   9.486654       2.929224    
  6.0653100E-03  6.2188501E-03   9.727195       2.933812    
  6.2188501E-03  6.3762800E-03   9.681622       2.871424    
  6.3762800E-03  6.5377001E-03   8.840328       2.973841    
  6.5377001E-03  6.5923799E-03   9.559252       4.756948    
  6.5923799E-03  6.6475999E-03   8.344144       4.851644    
  6.6475999E-03  6.7031998E-03   8.640275       4.990546    
  6.7031998E-03  6.8728901E-03   8.408901       2.949134    
  6.8728901E-03  7.0468802E-03   8.007039       3.005789    
  7.0468802E-03  7.2252699E-03   7.946830       2.974776    
  7.2252699E-03  7.4081798E-03   7.421258       3.135566    
  7.4081798E-03  7.5957198E-03   7.616072       2.908887    
  7.5957198E-03  7.7880099E-03   7.169467       3.012723    
  7.7880099E-03  7.9851598E-03   6.856238       3.006082    
  7.9851598E-03  8.1873098E-03   6.792832       2.958366    
  8.1873098E-03  8.3945701E-03   6.446796       2.962458    
  8.3945701E-03  8.6070802E-03   6.269167       3.088214    
  8.6070802E-03  8.8249696E-03   6.204201       2.976908    
  8.8249696E-03  9.0483697E-03   5.921149       3.130658    
  9.0483697E-03  9.2774397E-03   5.876525       3.161186    
  9.2774397E-03  9.5122904E-03   5.651102       3.187331    
  9.5122904E-03  9.7530996E-03   5.355578       3.259279    
  9.7530996E-03  9.9999998E-03   5.211760       3.214171    
  9.9999998E-03  1.0253200E-02   4.914389       3.099756    
  1.0253200E-02  1.0512700E-02   5.192989       2.998577    
  1.0512700E-02  1.0778800E-02   4.862811       3.172416    
  1.0778800E-02  1.1051700E-02   5.063779       3.228527    
  1.1051700E-02  1.1331500E-02   4.620994       3.314579    
  1.1331500E-02  1.1618300E-02   4.534829       3.340991    
  1.1618300E-02  1.1912500E-02   4.717293       3.228331    
  1.1912500E-02  1.2214000E-02   4.379113       3.022562    
  1.2214000E-02  1.2523200E-02   4.341380       3.191196    
  1.2523200E-02  1.2840200E-02   4.169066       3.243506    
  1.2840200E-02  1.3165300E-02   3.812274       3.308707    
  1.3165300E-02  1.3498600E-02   3.805068       3.278505    
  1.3498600E-02  1.3840300E-02   3.789250       3.182841    
  1.3840300E-02  1.4190700E-02   3.695950       3.226882    
  1.4190700E-02  1.4549900E-02   3.680514       3.124009    
  1.4549900E-02  1.4918300E-02   3.395631       3.295099    
  1.4918300E-02  1.5295900E-02   3.259706       3.133278    
  1.5295900E-02  1.5683100E-02   3.294574       3.275139    
  1.5683100E-02  1.6080100E-02   3.211078       3.200933    
  1.6080100E-02  1.6487200E-02   3.022351       3.409136    
  1.6487200E-02  1.6904600E-02   3.003460       3.304622    
  1.6904600E-02  1.7332500E-02   3.064806       3.401734    
  1.7332500E-02  1.7771300E-02   2.744017       3.403481    
  1.7771300E-02  1.8221200E-02   2.737546       3.344855    
  1.8221200E-02  1.8682500E-02   2.637473       3.410030    
  1.8682500E-02  1.9155400E-02   2.479454       3.618520    
  1.9155400E-02  1.9640300E-02   2.419480       3.546443    
  1.9640300E-02  2.0000000E-02   2.434075       4.026637    
