 # Detector n:  1  HeIInflux 
 # N. of energy intervals 260
  1.0000100E-14  2.0000000E-13  5.7745699E+10   18.06325    
  2.0000000E-13  2.9297300E-13  1.8215043E+11   22.25793    
  2.9297300E-13  4.2916701E-13  2.5273229E+11   8.897920    
  4.2916701E-13  6.2867300E-13  2.8576439E+11   7.362473    
  6.2867300E-13  9.2092198E-13  5.3257483E+11   5.041495    
  9.2092198E-13  1.3490300E-12  6.3234205E+11   3.426615    
  1.3490300E-12  1.9761499E-12  8.2263061E+11   3.845197    
  1.9761499E-12  2.8947901E-12  1.0556191E+12   1.667317    
  2.8947901E-12  4.2404799E-12  1.2737746E+12   1.726741    
  4.2404799E-12  6.2117499E-12  1.4421940E+12   1.469169    
  6.2117499E-12  9.0993801E-12  1.4216970E+12   1.275538    
  9.0993801E-12  1.3329400E-11  1.2922538E+12   1.040108    
  1.3329400E-11  1.9525799E-11  9.9488393E+11  0.8740996    
  1.9525799E-11  2.8602700E-11  5.8833253E+11   1.062241    
  2.8602700E-11  4.1899099E-11  2.6833094E+11   1.121853    
  4.1899099E-11  6.1376598E-11  1.0856686E+11   1.144783    
  6.1376598E-11  8.9908601E-11  4.5494690E+10   1.471763    
  8.9908601E-11  1.3170399E-10  2.1532350E+10   1.283887    
  1.3170399E-10  1.9292901E-10  1.2149224E+10   1.110271    
  1.9292901E-10  2.8261499E-10  7.5150351E+09   1.026150    
  2.8261499E-10  4.1399401E-10  4.8123484E+09  0.7663563    
  4.1399401E-10  5.3157900E-10  3.5178949E+09  0.9686761    
  5.3157900E-10  6.2506200E-10  2.8316982E+09   1.005384    
  6.2506200E-10  6.8256001E-10  2.4538071E+09   1.635855    
  6.8256001E-10  8.3368101E-10  2.1026689E+09  0.9752843    
  8.3368101E-10  8.7642499E-10  1.8940228E+09   1.797404    
  8.7642499E-10  1.1253500E-09  1.6207447E+09   1.015639    
  1.1253500E-09  1.4449800E-09  1.2570104E+09   1.037241    
  1.4449800E-09  1.8553900E-09  9.6377062E+08  0.9164763    
  1.8553900E-09  2.3823701E-09  7.4910048E+08  0.6258404    
  2.3823701E-09  3.0590199E-09  5.7956659E+08  0.8858103    
  3.0590199E-09  3.9278598E-09  4.4670474E+08  0.8758633    
  3.9278598E-09  5.0434799E-09  3.5285910E+08   1.106125    
  5.0434799E-09  6.4759500E-09  2.7445878E+08  0.7953542    
  6.4759500E-09  8.3152898E-09  2.1397952E+08  0.8171542    
  8.3152898E-09  1.0677000E-08  1.6700722E+08  0.7690701    
  1.0677000E-08  1.3709600E-08  1.3016000E+08  0.7964459    
  1.3709600E-08  1.7603501E-08  1.0012186E+08  0.9574883    
  1.7603501E-08  2.2603301E-08  7.7896112E+07  0.7190351    
  2.2603301E-08  2.9023200E-08  6.1089372E+07  0.6492633    
  2.9023200E-08  3.7266499E-08  4.6044716E+07  0.5813790    
  3.7266499E-08  4.7851199E-08  3.6365996E+07  0.5603405    
  4.7851199E-08  6.1442101E-08  2.8231358E+07  0.7083673    
  6.1442101E-08  7.8893301E-08  2.1603544E+07   1.007563    
  7.8893301E-08  1.0130100E-07  1.7156124E+07  0.7911801    
  1.0130100E-07  1.3007300E-07  1.3527598E+07  0.8744847    
  1.3007300E-07  1.6701701E-07  1.0535343E+07  0.9252199    
  1.6701701E-07  2.1445400E-07   8051062.      0.9112124    
  2.1445400E-07  2.7536399E-07   6134620.      0.8080771    
  2.7536399E-07  3.5357499E-07   4811318.      0.9522611    
  3.5357499E-07  4.5399901E-07   3621140.       1.043662    
  4.5399901E-07  5.8294700E-07   2799912.       1.004668    
  5.8294700E-07  7.4851800E-07   2134282.       1.012322    
  7.4851800E-07  9.6111603E-07   1672632.      0.7894350    
  9.6111603E-07  1.2341000E-06   1269948.       1.099124    
  1.2341000E-06  1.3638900E-06   1067714.       1.508358    
  1.3638900E-06  1.5073300E-06   959054.2       1.444758    
  1.5073300E-06  1.5846100E-06   886713.2       2.612937    
  1.5846100E-06  1.6658601E-06   815211.2       2.421660    
  1.6658601E-06  1.8410600E-06   773343.8       1.350799    
  1.8410600E-06  2.0346799E-06   667951.0       1.597040    
  2.0346799E-06  2.2486699E-06   621368.5       1.484953    
  2.2486699E-06  2.4851699E-06   567825.6       1.781277    
  2.4851699E-06  2.6125899E-06   516892.8       1.829858    
  2.6125899E-06  2.7465401E-06   474025.1       1.493409    
  2.7465401E-06  2.8634900E-06   472199.0       2.459802    
  2.8634900E-06  3.0353899E-06   436736.3       2.248369    
  3.0353899E-06  3.3546301E-06   397449.3       1.589709    
  3.3546301E-06  3.7074401E-06   360564.8       1.904851    
  3.7074401E-06  4.0973500E-06   317574.8       1.359129    
  4.0973500E-06  4.3074201E-06   289186.9       2.377669    
  4.3074201E-06  4.5282700E-06   275951.1       2.690045    
  4.5282700E-06  5.0045101E-06   258758.1       1.525241    
  5.0045101E-06  5.5308401E-06   255500.3       1.719170    
  5.5308401E-06  6.2672698E-06   179395.7       1.137663    
  6.2672698E-06  7.1017398E-06   176109.6       1.319871    
  7.1017398E-06  8.0473301E-06   156356.3       1.226462    
  8.0473301E-06  9.1188203E-06   132068.0       1.064899    
  9.1188203E-06  1.0333000E-05   118055.5       1.892520    
  1.0333000E-05  1.1708800E-05   101018.5       1.496213    
  1.1708800E-05  1.3267800E-05   88607.49       1.340986    
  1.3267800E-05  1.5034400E-05   77012.25       1.381422    
  1.5034400E-05  1.7036200E-05   67028.84       1.743272    
  1.7036200E-05  1.9304500E-05   57425.39       1.278000    
  1.9304500E-05  2.1334799E-05   50052.05       1.817155    
  2.1334799E-05  2.1874899E-05   49192.51       2.400495    
  2.1874899E-05  2.3578599E-05   43981.36       1.911378    
  2.3578599E-05  2.4175501E-05   44953.85       3.509135    
  2.4175501E-05  2.4787500E-05   37174.18       3.695472    
  2.4787500E-05  2.6058400E-05   37138.38       2.066943    
  2.6058400E-05  2.8087899E-05   37536.48       1.373775    
  2.8087899E-05  3.1827800E-05   39903.64       1.011659    
  3.1827800E-05  3.4306700E-05   26010.36       1.607879    
  3.4306700E-05  3.5175199E-05   13485.63       3.670044    
  3.5175199E-05  3.6065601E-05   14456.30       4.765567    
  3.6065601E-05  4.0867701E-05   17157.09       1.649644    
  4.0867701E-05  4.6309200E-05   18060.33       2.306186    
  4.6309200E-05  5.2475199E-05   16549.17       1.590844    
  5.2475199E-05  5.6562199E-05   15133.79       1.707911    
  5.6562199E-05  5.9462200E-05   13514.56       2.888988    
  5.9462200E-05  6.2510902E-05   13919.63       1.993928    
  6.2510902E-05  6.7379500E-05   13061.40       2.253142    
  6.7379500E-05  7.6350902E-05   12089.47       1.406007    
  7.6350902E-05  8.6516899E-05   9184.685       1.518348    
  8.6516899E-05  9.8036500E-05   5366.537       2.788379    
  9.8036500E-05  1.1109000E-04   6539.125       1.486513    
  1.1109000E-04  1.1678600E-04   5964.529       3.234541    
  1.1678600E-04  1.2277300E-04   4583.244       3.195709    
  1.2277300E-04  1.2906799E-04   6069.810       3.012530    
  1.2906799E-04  1.3568600E-04   6195.924       2.153916    
  1.3568600E-04  1.4264201E-04   4356.383       2.075164    
  1.4264201E-04  1.4995600E-04   3445.167       2.911585    
  1.4995600E-04  1.5764400E-04   3217.956       3.521056    
  1.5764400E-04  1.6163501E-04   2712.812       5.820655    
  1.6163501E-04  1.6572700E-04   3062.275       5.664189    
  1.6572700E-04  1.6992200E-04   3378.751       4.259422    
  1.6992200E-04  1.7422400E-04   3174.479       5.658369    
  1.7422400E-04  1.8315599E-04   3222.649       2.971309    
  1.8315599E-04  1.9254700E-04   3265.757       2.646596    
  1.9254700E-04  2.0241900E-04   3039.172       3.088207    
  2.0241900E-04  2.1279699E-04   2502.902       3.149025    
  2.1279699E-04  2.2370800E-04   2464.344       2.666746    
  2.2370800E-04  2.3517800E-04   2205.709       2.976729    
  2.3517800E-04  2.4723500E-04   2207.180       3.132906    
  2.4723500E-04  2.5991100E-04   2275.606       3.324514    
  2.5991100E-04  2.7323700E-04   2415.626       3.085359    
  2.7323700E-04  2.8015400E-04   1945.356       4.206951    
  2.8015400E-04  2.8724599E-04   1555.622       3.667025    
  2.8724599E-04  2.9451799E-04   1716.489       3.713469    
  2.9451799E-04  3.0197401E-04   1586.441       5.216847    
  3.0197401E-04  3.0961799E-04   1640.898       3.981734    
  3.0961799E-04  3.1745600E-04   1432.599       3.463367    
  3.1745600E-04  3.3373301E-04   1463.432       3.263816    
  3.3373301E-04  3.5084400E-04   1536.250       3.191452    
  3.5084400E-04  3.6883200E-04   1307.262       4.355494    
  3.6883200E-04  3.8774201E-04   1203.650       3.080311    
  3.8774201E-04  4.0762199E-04   1130.908       3.816180    
  4.0762199E-04  4.2852099E-04   956.7142       3.473308    
  4.2852099E-04  4.5049199E-04   862.4665       3.268564    
  4.5049199E-04  4.7358900E-04   784.9257       4.196164    
  4.7358900E-04  4.9787102E-04   854.1967       3.134756    
  4.9787102E-04  5.1047403E-04   830.3776       4.969616    
  5.1047403E-04  5.2339700E-04   733.1355       5.425474    
  5.2339700E-04  5.3664698E-04   706.9036       3.723562    
  5.3664698E-04  5.5023201E-04   648.6938       5.332723    
  5.5023201E-04  5.7844300E-04   625.7391       3.209901    
  5.7844300E-04  6.0810102E-04   522.6024       3.360261    
  6.0810102E-04  6.3927902E-04   501.7871       3.563377    
  6.3927902E-04  6.7205500E-04   408.5780       2.969337    
  6.7205500E-04  7.0651202E-04   398.3009       3.561064    
  7.0651202E-04  7.4273598E-04   360.8144       3.597887    
  7.4273598E-04  7.8081700E-04   301.5855       5.652925    
  7.8081700E-04  8.2085002E-04   251.9385       4.857078    
  8.2085002E-04  8.6293602E-04   244.8197       4.388053    
  8.6293602E-04  9.0717903E-04   193.3015       3.700560    
  9.0717903E-04  9.5369201E-04   181.5779       5.001556    
  9.5369201E-04  9.6163998E-04   164.4546       8.063089    
  9.6163998E-04  9.7783399E-04   169.8491       6.084736    
  9.7783399E-04  1.0025901E-03   163.3463       7.107613    
  1.0025901E-03  1.0539900E-03   150.5260       4.266181    
  1.0539900E-03  1.1080300E-03   141.3543       4.775412    
  1.1080300E-03  1.1648400E-03   131.6500       2.743075    
  1.1648400E-03  1.1943300E-03   114.4803       6.933517    
  1.1943300E-03  1.2245600E-03   121.4938       5.791584    
  1.2245600E-03  1.2873500E-03   115.6869       3.800685    
  1.2873500E-03  1.3533500E-03   117.4331       3.674376    
  1.3533500E-03  1.4227401E-03   116.6367       4.180828    
  1.4227401E-03  1.4956900E-03   100.9387       4.295862    
  1.4956900E-03  1.5335500E-03   106.1060       3.592222    
  1.5335500E-03  1.5723699E-03   112.6593       5.005006    
  1.5723699E-03  1.6121800E-03   80.84563       6.170690    
  1.6121800E-03  1.6529900E-03   103.8956       6.396539    
  1.6529900E-03  1.7377400E-03   88.18777       4.426548    
  1.7377400E-03  1.8268300E-03   100.1519       5.307670    
  1.8268300E-03  1.8730800E-03   88.04754       8.345719    
  1.8730800E-03  1.9205000E-03   85.04494       8.255200    
  1.9205000E-03  1.9691200E-03   75.09939       8.655055    
  1.9691200E-03  2.0189700E-03   83.31138       6.886938    
  2.0189700E-03  2.1224800E-03   72.78699       4.711304    
  2.1224800E-03  2.2313001E-03   65.95918       3.896256    
  2.2313001E-03  2.2688799E-03   55.77135       11.79541    
  2.2688799E-03  2.3068599E-03   67.16430       7.822716    
  2.3068599E-03  2.3457000E-03   54.30515       9.915639    
  2.3457000E-03  2.3652499E-03   57.78700       18.18552    
  2.3652499E-03  2.3852000E-03   73.17565       11.65894    
  2.3852000E-03  2.4251300E-03   55.05438       7.626356    
  2.4251300E-03  2.4659701E-03   52.42061       12.78108    
  2.4659701E-03  2.5923999E-03   48.26606       6.918772    
  2.5923999E-03  2.7253199E-03   46.60303       6.012316    
  2.7253199E-03  2.8650500E-03   40.09412       5.255499    
  2.8650500E-03  3.0119400E-03   34.02237       6.280417    
  3.0119400E-03  3.0881900E-03   34.58126       9.674164    
  3.0881900E-03  3.1663701E-03   35.78181       7.987354    
  3.1663701E-03  3.2465300E-03   37.12152       9.162294    
  3.2465300E-03  3.3287101E-03   28.96948       11.47587    
  3.3287101E-03  3.4993801E-03   26.01595       7.679968    
  3.4993801E-03  3.6787901E-03   29.03962       6.881534    
  3.6787901E-03  3.8674099E-03   24.99469       6.304083    
  3.8674099E-03  4.0656999E-03   20.73429       7.100702    
  4.0656999E-03  4.2741499E-03   24.23229       7.856595    
  4.2741499E-03  4.4932901E-03   19.59377       8.700033    
  4.4932901E-03  4.6070400E-03   17.81623       9.586226    
  4.6070400E-03  4.7236700E-03   15.73737       9.740083    
  4.7236700E-03  4.8432499E-03   16.43688       8.610242    
  4.8432499E-03  4.9658502E-03   16.77536       9.754676    
  4.9658502E-03  5.2204598E-03   19.79341       6.266497    
  5.2204598E-03  5.4881200E-03   15.35234       11.00259    
  5.4881200E-03  5.7695000E-03   13.96138       9.513499    
  5.7695000E-03  5.9155500E-03   12.59132       10.29862    
  5.9155500E-03  6.0653100E-03   14.37282       11.83063    
  6.0653100E-03  6.2188501E-03   10.75952       9.814168    
  6.2188501E-03  6.3762800E-03   12.47275       8.406661    
  6.3762800E-03  6.5377001E-03   12.64108       13.93366    
  6.5377001E-03  6.5923799E-03   9.360553       19.46525    
  6.5923799E-03  6.6475999E-03   8.434646       21.45640    
  6.6475999E-03  6.7031998E-03   12.76585       13.93565    
  6.7031998E-03  6.8728901E-03   11.39674       8.738085    
  6.8728901E-03  7.0468802E-03   12.65237       12.70132    
  7.0468802E-03  7.2252699E-03   11.98960       7.417651    
  7.2252699E-03  7.4081798E-03   10.82847       8.822706    
  7.4081798E-03  7.5957198E-03   10.24350       14.13531    
  7.5957198E-03  7.7880099E-03   8.313311       10.81201    
  7.7880099E-03  7.9851598E-03   8.515438       15.96791    
  7.9851598E-03  8.1873098E-03   12.18372       12.39871    
  8.1873098E-03  8.3945701E-03   8.712969       7.993560    
  8.3945701E-03  8.6070802E-03   11.17863       14.18879    
  8.6070802E-03  8.8249696E-03   7.267638       16.44482    
  8.8249696E-03  9.0483697E-03   6.284344       11.44911    
  9.0483697E-03  9.2774397E-03   6.959880       13.17225    
  9.2774397E-03  9.5122904E-03   7.968812       9.842743    
  9.5122904E-03  9.7530996E-03   6.950368       12.25049    
  9.7530996E-03  9.9999998E-03   4.871922       10.64811    
  9.9999998E-03  1.0253200E-02   5.255684       11.83111    
  1.0253200E-02  1.0512700E-02   6.816926       9.168231    
  1.0512700E-02  1.0778800E-02   7.341036       12.42452    
  1.0778800E-02  1.1051700E-02   5.274351       15.75402    
  1.1051700E-02  1.1331500E-02   5.851190       15.43750    
  1.1331500E-02  1.1618300E-02   5.601399       14.16471    
  1.1618300E-02  1.1912500E-02   4.860886       10.90836    
  1.1912500E-02  1.2214000E-02   6.013661       14.97949    
  1.2214000E-02  1.2523200E-02   6.469233       12.47260    
  1.2523200E-02  1.2840200E-02   6.065139       12.29444    
  1.2840200E-02  1.3165300E-02   5.863461       9.467066    
  1.3165300E-02  1.3498600E-02   5.492720       13.56098    
  1.3498600E-02  1.3840300E-02   4.704062       10.16520    
  1.3840300E-02  1.4190700E-02   5.473698       10.78392    
  1.4190700E-02  1.4549900E-02   5.346692       15.22676    
  1.4549900E-02  1.4918300E-02   4.254183       13.91956    
  1.4918300E-02  1.5295900E-02   4.634686       15.25532    
  1.5295900E-02  1.5683100E-02   4.367475       13.79483    
  1.5683100E-02  1.6080100E-02   3.604990       12.77958    
  1.6080100E-02  1.6487200E-02   5.312024       12.13394    
  1.6487200E-02  1.6904600E-02   3.524169       13.05173    
  1.6904600E-02  1.7332500E-02   4.078372       14.12447    
  1.7332500E-02  1.7771300E-02   3.847380       12.02078    
  1.7771300E-02  1.8221200E-02   3.202626       12.13202    
  1.8221200E-02  1.8682500E-02   3.634381       16.56156    
  1.8682500E-02  1.9155400E-02   3.958445       12.69457    
  1.9155400E-02  1.9640300E-02   2.651137       12.17517    
  1.9640300E-02  2.0000000E-02   3.244474       9.047724    
