 # Detector n:            1   HeIInflux 
 # N. of energy intervals         260
  1.0000100E-14  2.0000000E-13  7.9165678E+10  0.5563648    
  2.0000000E-13  2.9297300E-13  1.7439716E+11  0.5206357    
  2.9297300E-13  4.2916701E-13  2.4876160E+11  0.3654674    
  4.2916701E-13  6.2867300E-13  3.4944847E+11  0.2615975    
  6.2867300E-13  9.2092198E-13  4.8369680E+11  0.1860508    
  9.2092198E-13  1.3490300E-12  6.5042743E+11  0.1348723    
  1.3490300E-12  1.9761499E-12  8.3747242E+11  9.8323613E-02
  1.9761499E-12  2.8947901E-12  1.0522821E+12  7.3433101E-02
  2.8947901E-12  4.2404799E-12  1.2528423E+12  5.9301782E-02
  4.2404799E-12  6.2117499E-12  1.3909412E+12  4.7318343E-02
  6.2117499E-12  9.0993801E-12  1.4142567E+12  4.0072277E-02
  9.0993801E-12  1.3329400E-11  1.2853838E+12  3.6714826E-02
  1.3329400E-11  1.9525799E-11  1.0100041E+12  3.4931079E-02
  1.9525799E-11  2.8602700E-11  6.6693294E+11  3.4012113E-02
  2.8602700E-11  4.1899099E-11  3.6969923E+11  3.5703495E-02
  4.1899099E-11  6.1376598E-11  1.8462951E+11  4.2059205E-02
  6.1376598E-11  8.9908601E-11  8.4103750E+10  5.2503485E-02
  8.9908601E-11  1.3170399E-10  3.2638941E+10  6.6462420E-02
  1.3170399E-10  1.9292901E-10  1.1994095E+10  8.3857641E-02
  1.9292901E-10  2.8261499E-10  5.4660045E+09  0.1071789    
  2.8261499E-10  4.1399401E-10  3.1839401E+09  0.1132429    
  4.1399401E-10  5.3157900E-10  2.2254799E+09  0.1396338    
  5.3157900E-10  6.2506200E-10  1.7737828E+09  0.1744098    
  6.2506200E-10  6.8256001E-10  1.5488140E+09  0.2369572    
  6.8256001E-10  8.3368101E-10  1.3259063E+09  0.1633982    
  8.3368101E-10  8.7642499E-10  1.1584260E+09  0.3100992    
  8.7642499E-10  1.1253500E-09  9.8524115E+08  0.1471710    
  1.1253500E-09  1.4449800E-09  7.5446182E+08  0.1409080    
  1.4449800E-09  1.8553900E-09  5.8043590E+08  0.1444757    
  1.8553900E-09  2.3823701E-09  4.4669942E+08  0.1473014    
  2.3823701E-09  3.0590199E-09  3.4604285E+08  0.1469014    
  3.0590199E-09  3.9278598E-09  2.6643642E+08  0.1449712    
  3.9278598E-09  5.0434799E-09  2.0660370E+08  0.1440377    
  5.0434799E-09  6.4759500E-09  1.5987398E+08  0.1473998    
  6.4759500E-09  8.3152898E-09  1.2440254E+08  0.1475891    
  8.3152898E-09  1.0677000E-08  9.6185752E+07  0.1429893    
  1.0677000E-08  1.3709600E-08  7.4452640E+07  0.1507811    
  1.3709600E-08  1.7603501E-08  5.7709388E+07  0.1495770    
  1.7603501E-08  2.2603301E-08  4.4600484E+07  0.1532408    
  2.2603301E-08  2.9023200E-08  3.4409180E+07  0.1490984    
  2.9023200E-08  3.7266499E-08  2.6612838E+07  0.1558114    
  3.7266499E-08  4.7851199E-08  2.0596628E+07  0.1547042    
  4.7851199E-08  6.1442101E-08  1.5859747E+07  0.1541387    
  6.1442101E-08  7.8893301E-08  1.2241684E+07  0.1543474    
  7.8893301E-08  1.0130100E-07   9446468.      0.1596058    
  1.0130100E-07  1.3007300E-07   7255832.      0.1523568    
  1.3007300E-07  1.6701701E-07   5581481.      0.1570535    
  1.6701701E-07  2.1445400E-07   4299266.      0.1533676    
  2.1445400E-07  2.7536399E-07   3296236.      0.1639468    
  2.7536399E-07  3.5357499E-07   2553504.      0.1650267    
  3.5357499E-07  4.5399901E-07   1905362.      0.1620352    
  4.5399901E-07  5.8294700E-07   1472228.      0.1649098    
  5.8294700E-07  7.4851800E-07   1128871.      0.1766493    
  7.4851800E-07  9.6111603E-07   864303.8      0.1605449    
  9.6111603E-07  1.2341000E-06   660465.6      0.1689811    
  1.2341000E-06  1.3638900E-06   546374.6      0.2655009    
  1.3638900E-06  1.5073300E-06   491218.6      0.2581414    
  1.5073300E-06  1.5846100E-06   452131.3      0.3744178    
  1.5846100E-06  1.6658601E-06   429286.1      0.3631802    
  1.6658601E-06  1.8410600E-06   397808.0      0.2572293    
  1.8410600E-06  2.0346799E-06   376036.6      0.2578201    
  2.0346799E-06  2.2486699E-06   298344.1      0.2791689    
  2.2486699E-06  2.4851699E-06   283149.1      0.2780431    
  2.4851699E-06  2.6125899E-06   252737.3      0.3819842    
  2.6125899E-06  2.7465401E-06   233792.3      0.3958368    
  2.7465401E-06  2.8634900E-06   232257.1      0.4118285    
  2.8634900E-06  3.0353899E-06   219872.3      0.3655365    
  3.0353899E-06  3.3546301E-06   203204.6      0.2762511    
  3.3546301E-06  3.7074401E-06   181080.6      0.2862038    
  3.7074401E-06  4.0973500E-06   162491.6      0.2779834    
  4.0973500E-06  4.3074201E-06   149954.3      0.3864917    
  4.3074201E-06  4.5282700E-06   139426.3      0.4031184    
  4.5282700E-06  5.0045101E-06   130184.3      0.2683657    
  5.0045101E-06  5.5308401E-06   129451.1      0.2637406    
  5.5308401E-06  6.2672698E-06   85803.59      0.2883676    
  6.2672698E-06  7.1017398E-06   88034.28      0.2668156    
  7.1017398E-06  8.0473301E-06   76211.95      0.2681058    
  8.0473301E-06  9.1188203E-06   66225.12      0.2620992    
  9.1188203E-06  1.0333000E-05   57167.71      0.2682635    
  1.0333000E-05  1.1708800E-05   49748.25      0.2613104    
  1.1708800E-05  1.3267800E-05   43474.09      0.2742758    
  1.3267800E-05  1.5034400E-05   36981.06      0.2708906    
  1.5034400E-05  1.7036200E-05   31935.09      0.2792677    
  1.7036200E-05  1.9304500E-05   27475.42      0.2726198    
  1.9304500E-05  2.1334799E-05   24064.13      0.3164596    
  2.1334799E-05  2.1874899E-05   22668.48      0.6356794    
  2.1874899E-05  2.3578599E-05   21249.33      0.3694565    
  2.3578599E-05  2.4175501E-05   20115.01      0.6454014    
  2.4175501E-05  2.4787500E-05   20019.96      0.6277729    
  2.4787500E-05  2.6058400E-05   19275.79      0.4386221    
  2.6058400E-05  2.8087899E-05   18564.14      0.3675062    
  2.8087899E-05  3.1827800E-05   19566.67      0.2691870    
  3.1827800E-05  3.4306700E-05   11701.21      0.4072242    
  3.4306700E-05  3.5175199E-05   5757.280      0.9769544    
  3.5175199E-05  3.6065601E-05   5331.074      0.9141937    
  3.6065601E-05  4.0867701E-05   7391.907      0.3774785    
  4.0867701E-05  4.6309200E-05   8631.391      0.3235987    
  4.6309200E-05  5.2475199E-05   7948.129      0.3179648    
  5.2475199E-05  5.6562199E-05   7130.163      0.4297863    
  5.6562199E-05  5.9462200E-05   6634.461      0.4913694    
  5.9462200E-05  6.2510902E-05   6336.211      0.4967234    
  6.2510902E-05  6.7379500E-05   6122.946      0.4145162    
  6.7379500E-05  7.6350902E-05   6052.053      0.3000708    
  7.6350902E-05  8.6516899E-05   4221.935      0.3473819    
  8.6516899E-05  9.8036500E-05   2371.398      0.4188106    
  9.8036500E-05  1.1109000E-04   2997.333      0.3509136    
  1.1109000E-04  1.1678600E-04   2956.385      0.5365789    
  1.1678600E-04  1.2277300E-04   2059.191      0.6246063    
  1.2277300E-04  1.2906799E-04   3020.923      0.5044191    
  1.2906799E-04  1.3568600E-04   3023.018      0.4918182    
  1.3568600E-04  1.4264201E-04   2196.895      0.5560833    
  1.4264201E-04  1.4995600E-04   1620.453      0.6145013    
  1.4995600E-04  1.5764400E-04   1527.734      0.6289904    
  1.5764400E-04  1.6163501E-04   1195.282      0.9947576    
  1.6163501E-04  1.6572700E-04   1466.943      0.9025666    
  1.6572700E-04  1.6992200E-04   1555.700      0.8508942    
  1.6992200E-04  1.7422400E-04   1550.419      0.8205700    
  1.7422400E-04  1.8315599E-04   1614.531      0.5611128    
  1.8315599E-04  1.9254700E-04   1606.058      0.5461735    
  1.9254700E-04  2.0241900E-04   1442.388      0.5520494    
  2.0241900E-04  2.1279699E-04   1118.243      0.6146467    
  2.1279699E-04  2.2370800E-04   1138.743      0.5867324    
  2.2370800E-04  2.3517800E-04   1108.573      0.6198689    
  2.3517800E-04  2.4723500E-04   1138.448      0.5764179    
  2.4723500E-04  2.5991100E-04   1123.096      0.5778711    
  2.5991100E-04  2.7323700E-04   1171.069      0.5575523    
  2.7323700E-04  2.8015400E-04   1021.363      0.7753330    
  2.8015400E-04  2.8724599E-04   813.1518      0.8647367    
  2.8724599E-04  2.9451799E-04   811.4092      0.8864790    
  2.9451799E-04  3.0197401E-04   822.2435      0.8406178    
  3.0197401E-04  3.0961799E-04   807.3542      0.8734214    
  3.0961799E-04  3.1745600E-04   744.6146      0.8853521    
  3.1745600E-04  3.3373301E-04   767.0005      0.6043109    
  3.3373301E-04  3.5084400E-04   760.4697      0.5824152    
  3.5084400E-04  3.6883200E-04   641.1678      0.5842583    
  3.6883200E-04  3.8774201E-04   596.2316      0.6019816    
  3.8774201E-04  4.0762199E-04   569.3721      0.6155851    
  4.0762199E-04  4.2852099E-04   472.5227      0.6451674    
  4.2852099E-04  4.5049199E-04   434.1029      0.6371827    
  4.5049199E-04  4.7358900E-04   433.4669      0.6553147    
  4.7358900E-04  4.9787102E-04   423.6793      0.6312413    
  4.9787102E-04  5.1047403E-04   414.5046      0.8284342    
  5.1047403E-04  5.2339700E-04   402.2350      0.8668374    
  5.2339700E-04  5.3664698E-04   336.1819      0.9155323    
  5.3664698E-04  5.5023201E-04   356.2310      0.8880895    
  5.5023201E-04  5.7844300E-04   323.5789      0.6582768    
  5.7844300E-04  6.0810102E-04   306.5057      0.6359971    
  6.0810102E-04  6.3927902E-04   275.5419      0.6452550    
  6.3927902E-04  6.7205500E-04   235.0466      0.6597273    
  6.7205500E-04  7.0651202E-04   228.8581      0.6737751    
  7.0651202E-04  7.4273598E-04   204.2504      0.6510561    
  7.4273598E-04  7.8081700E-04   176.2820      0.6700063    
  7.8081700E-04  8.2085002E-04   139.3176      0.6907627    
  8.2085002E-04  8.6293602E-04   126.9425      0.7174541    
  8.6293602E-04  9.0717903E-04   111.7402      0.6788455    
  9.0717903E-04  9.5369201E-04   104.0487      0.6731322    
  9.5369201E-04  9.6163998E-04   92.29684       1.701266    
  9.6163998E-04  9.7783399E-04   91.60497       1.183940    
  9.7783399E-04  1.0025901E-03   87.84885      0.9744590    
  1.0025901E-03  1.0539900E-03   83.95615      0.6831643    
  1.0539900E-03  1.1080300E-03   83.44655      0.6761021    
  1.1080300E-03  1.1648400E-03   76.29352      0.6917599    
  1.1648400E-03  1.1943300E-03   72.52248      0.9722893    
  1.1943300E-03  1.2245600E-03   76.62090      0.9411962    
  1.2245600E-03  1.2873500E-03   73.09464      0.6885629    
  1.2873500E-03  1.3533500E-03   70.99429      0.6549582    
  1.3533500E-03  1.4227401E-03   72.49165      0.6647265    
  1.4227401E-03  1.4956900E-03   71.14764      0.6917679    
  1.4956900E-03  1.5335500E-03   71.07359      0.9572672    
  1.5335500E-03  1.5723699E-03   70.16367      0.9405445    
  1.5723699E-03  1.6121800E-03   69.71959      0.9498943    
  1.6121800E-03  1.6529900E-03   69.26709      0.9567899    
  1.6529900E-03  1.7377400E-03   67.28441      0.6975893    
  1.7377400E-03  1.8268300E-03   65.03646      0.6810082    
  1.8268300E-03  1.8730800E-03   65.07361      0.9667184    
  1.8730800E-03  1.9205000E-03   60.99976       1.009951    
  1.9205000E-03  1.9691200E-03   60.16491       1.000575    
  1.9691200E-03  2.0189700E-03   61.01629      0.9922573    
  2.0189700E-03  2.1224800E-03   57.79702      0.7226407    
  2.1224800E-03  2.2313001E-03   56.32452      0.7349286    
  2.2313001E-03  2.2688799E-03   54.94201       1.280777    
  2.2688799E-03  2.3068599E-03   52.96336       1.229598    
  2.3068599E-03  2.3457000E-03   54.87395       1.217247    
  2.3457000E-03  2.3652499E-03   52.40309       1.787981    
  2.3652499E-03  2.3852000E-03   54.02267       1.696292    
  2.3852000E-03  2.4251300E-03   51.82306       1.275700    
  2.4251300E-03  2.4659701E-03   51.10030       1.192949    
  2.4659701E-03  2.5923999E-03   45.75873      0.7919273    
  2.5923999E-03  2.7253199E-03   42.79890      0.7916149    
  2.7253199E-03  2.8650500E-03   39.62097      0.7967511    
  2.8650500E-03  3.0119400E-03   36.95309      0.8116316    
  3.0119400E-03  3.0881900E-03   35.39272       1.134000    
  3.0881900E-03  3.1663701E-03   34.49213       1.160999    
  3.1663701E-03  3.2465300E-03   33.37222       1.145783    
  3.2465300E-03  3.3287101E-03   30.57097       1.196340    
  3.3287101E-03  3.4993801E-03   29.72562      0.8319704    
  3.4993801E-03  3.6787901E-03   27.58837      0.8761036    
  3.6787901E-03  3.8674099E-03   26.94782      0.8646793    
  3.8674099E-03  4.0656999E-03   25.35054      0.8665077    
  4.0656999E-03  4.2741499E-03   24.38435      0.8646092    
  4.2741499E-03  4.4932901E-03   22.35520      0.9381302    
  4.4932901E-03  4.6070400E-03   21.74573       1.182634    
  4.6070400E-03  4.7236700E-03   21.38799       1.245068    
  4.7236700E-03  4.8432499E-03   19.78065       1.264189    
  4.8432499E-03  4.9658502E-03   19.80954       1.272799    
  4.9658502E-03  5.2204598E-03   18.49501      0.8978217    
  5.2204598E-03  5.4881200E-03   17.85891      0.8977942    
  5.4881200E-03  5.7695000E-03   16.56799      0.9568620    
  5.7695000E-03  5.9155500E-03   15.61183       1.323475    
  5.9155500E-03  6.0653100E-03   14.79573       1.318262    
  6.0653100E-03  6.2188501E-03   14.76940       1.339943    
  6.2188501E-03  6.3762800E-03   14.14174       1.361400    
  6.3762800E-03  6.5377001E-03   13.42600       1.400842    
  6.5377001E-03  6.5923799E-03   13.54187       2.345538    
  6.5923799E-03  6.6475999E-03   13.17297       2.353757    
  6.6475999E-03  6.7031998E-03   12.72063       2.405594    
  6.7031998E-03  6.8728901E-03   12.42601       1.347641    
  6.8728901E-03  7.0468802E-03   12.48845       1.328256    
  7.0468802E-03  7.2252699E-03   11.92453       1.393690    
  7.2252699E-03  7.4081798E-03   11.02767       1.409858    
  7.4081798E-03  7.5957198E-03   10.71743       1.388303    
  7.5957198E-03  7.7880099E-03   10.52165       1.456061    
  7.7880099E-03  7.9851598E-03   10.02007       1.455381    
  7.9851598E-03  8.1873098E-03   9.644145       1.438333    
  8.1873098E-03  8.3945701E-03   9.300848       1.440626    
  8.3945701E-03  8.6070802E-03   9.032387       1.487113    
  8.6070802E-03  8.8249696E-03   8.860859       1.491796    
  8.8249696E-03  9.0483697E-03   8.533643       1.485753    
  9.0483697E-03  9.2774397E-03   8.194355       1.556147    
  9.2774397E-03  9.5122904E-03   7.889610       1.506293    
  9.5122904E-03  9.7530996E-03   7.524190       1.523211    
  9.7530996E-03  9.9999998E-03   7.376946       1.550433    
  9.9999998E-03  1.0253200E-02   7.091722       1.548979    
  1.0253200E-02  1.0512700E-02   6.763868       1.489968    
  1.0512700E-02  1.0778800E-02   6.737923       1.582619    
  1.0778800E-02  1.1051700E-02   6.431178       1.597534    
  1.1051700E-02  1.1331500E-02   6.303576       1.574260    
  1.1331500E-02  1.1618300E-02   5.754032       1.621948    
  1.1618300E-02  1.1912500E-02   5.834843       1.622589    
  1.1912500E-02  1.2214000E-02   5.613282       1.575337    
  1.2214000E-02  1.2523200E-02   5.510835       1.646483    
  1.2523200E-02  1.2840200E-02   5.363690       1.607491    
  1.2840200E-02  1.3165300E-02   5.280267       1.593671    
  1.3165300E-02  1.3498600E-02   5.004799       1.619065    
  1.3498600E-02  1.3840300E-02   4.980580       1.613125    
  1.3840300E-02  1.4190700E-02   4.833283       1.646117    
  1.4190700E-02  1.4549900E-02   4.651853       1.671311    
  1.4549900E-02  1.4918300E-02   4.476283       1.648010    
  1.4918300E-02  1.5295900E-02   4.304274       1.682290    
  1.5295900E-02  1.5683100E-02   4.193470       1.719768    
  1.5683100E-02  1.6080100E-02   4.006598       1.768436    
  1.6080100E-02  1.6487200E-02   4.061848       1.647484    
  1.6487200E-02  1.6904600E-02   3.864816       1.690730    
  1.6904600E-02  1.7332500E-02   3.691133       1.809947    
  1.7332500E-02  1.7771300E-02   3.547749       1.707574    
  1.7771300E-02  1.8221200E-02   3.392904       1.737158    
  1.8221200E-02  1.8682500E-02   3.283755       1.851082    
  1.8682500E-02  1.9155400E-02   3.158916       1.736742    
  1.9155400E-02  1.9640300E-02   3.101030       1.772226    
  1.9640300E-02  2.0000000E-02   2.975281       2.025188    
