 # Detector n:            1   HeIInflux 
 # N. of energy intervals         277
  1.0000100E-14  2.0000000E-13  1.0818538E+10   18.00382    
  2.0000000E-13  2.9297300E-13  2.5739735E+10   16.19350    
  2.9297300E-13  4.2916701E-13  3.6502098E+10   14.17082    
  4.2916701E-13  6.2867300E-13  5.6196014E+10   10.92522    
  6.2867300E-13  9.2092198E-13  7.9725380E+10   10.67992    
  9.2092198E-13  1.3490300E-12  1.0499633E+11   7.044928    
  1.3490300E-12  1.9761499E-12  1.5074342E+11   6.793683    
  1.9761499E-12  2.8947901E-12  1.6970138E+11   3.237534    
  2.8947901E-12  4.2404799E-12  2.0324888E+11   2.249409    
  4.2404799E-12  6.2117499E-12  2.3737685E+11   2.418395    
  6.2117499E-12  9.0993801E-12  2.4398874E+11   2.104937    
  9.0993801E-12  1.3329400E-11  2.2440732E+11   1.595785    
  1.3329400E-11  1.9525799E-11  1.7217202E+11   1.499617    
  1.9525799E-11  2.8602700E-11  1.0961667E+11   1.374353    
  2.8602700E-11  4.1899099E-11  6.1599805E+10   1.804909    
  4.1899099E-11  6.1376598E-11  3.0085599E+10   2.466611    
  6.1376598E-11  8.9908601E-11  1.2664440E+10   2.181789    
  8.9908601E-11  1.3170399E-10  4.5704115E+09   2.769264    
  1.3170399E-10  1.9292901E-10  1.3278456E+09   3.693129    
  1.9292901E-10  2.8261499E-10  4.2895725E+08   4.181195    
  2.8261499E-10  4.1399401E-10  1.9250782E+08   4.535963    
  4.1399401E-10  5.3157900E-10  1.2692034E+08   6.649776    
  5.3157900E-10  6.2506200E-10  1.0621922E+08   9.132370    
  6.2506200E-10  6.8256001E-10  1.0713988E+08   10.62255    
  6.8256001E-10  8.3368101E-10  7.6442208E+07   8.096598    
  8.3368101E-10  8.7642499E-10  5.4172772E+07   11.92773    
  8.7642499E-10  1.1253500E-09  5.8054424E+07   5.429364    
  1.1253500E-09  1.4449800E-09  4.4072740E+07   7.611995    
  1.4449800E-09  1.8553900E-09  3.4839532E+07   6.147999    
  1.8553900E-09  2.3823701E-09  2.5026284E+07   5.630827    
  2.3823701E-09  3.0590199E-09  1.6338386E+07   5.653115    
  3.0590199E-09  3.9278598E-09  1.3122738E+07   5.505052    
  3.9278598E-09  5.0434799E-09   9990453.       5.689569    
  5.0434799E-09  6.4759500E-09   7307585.       8.169375    
  6.4759500E-09  8.3152898E-09   7255130.       8.645231    
  8.3152898E-09  1.0677000E-08   4999878.       7.084401    
  1.0677000E-08  1.3709600E-08   3553696.       7.093960    
  1.3709600E-08  1.7603501E-08   2745856.       6.145965    
  1.7603501E-08  2.2603301E-08   2142993.       6.314146    
  2.2603301E-08  2.9023200E-08   1425652.       6.835760    
  2.9023200E-08  3.7266499E-08   1389432.       14.68982    
  3.7266499E-08  4.7851199E-08   870540.2       6.419065    
  4.7851199E-08  6.1442101E-08   662981.1       5.951042    
  6.1442101E-08  7.8893301E-08   615877.7       18.56585    
  7.8893301E-08  1.0130100E-07   382604.0       6.775203    
  1.0130100E-07  1.3007300E-07   294270.1       6.683498    
  1.3007300E-07  1.6701701E-07   238756.2       10.12435    
  1.6701701E-07  2.1445400E-07   180216.2       8.485404    
  2.1445400E-07  2.7536399E-07   134227.7       7.931209    
  2.7536399E-07  3.5357499E-07   104538.1       7.463533    
  3.5357499E-07  4.5399901E-07   73571.48       6.532063    
  4.5399901E-07  5.8294700E-07   52036.36       6.677619    
  5.8294700E-07  7.4851800E-07   43574.27       7.179733    
  7.4851800E-07  9.6111603E-07   29636.37       7.290051    
  9.6111603E-07  1.2341000E-06   23059.87       6.467335    
  1.2341000E-06  1.3638900E-06   20346.97       10.62640    
  1.3638900E-06  1.5073300E-06   18697.72       10.43054    
  1.5073300E-06  1.5846100E-06   16792.51       12.71583    
  1.5846100E-06  1.6658601E-06   11468.42       14.29313    
  1.6658601E-06  1.8410600E-06   10037.61       10.12406    
  1.8410600E-06  2.0346799E-06   15521.50       15.53394    
  2.0346799E-06  2.2486699E-06   8667.288       13.12252    
  2.2486699E-06  2.4851699E-06   8725.151       13.26595    
  2.4851699E-06  2.6125899E-06   5752.805       17.65938    
  2.6125899E-06  2.7465401E-06   8199.655       16.97612    
  2.7465401E-06  2.8634900E-06   7403.294       18.85190    
  2.8634900E-06  3.0353899E-06   8334.513       14.76853    
  3.0353899E-06  3.3546301E-06   6781.248       10.14062    
  3.3546301E-06  3.7074401E-06   5288.718       14.95864    
  3.7074401E-06  4.0973500E-06   5073.906       10.36100    
  4.0973500E-06  4.3074201E-06   4991.492       19.45223    
  4.3074201E-06  4.5282700E-06   4361.162       19.30958    
  4.5282700E-06  5.0045101E-06   4363.729       11.29005    
  5.0045101E-06  5.5308401E-06   3948.144       9.983855    
  5.5308401E-06  6.2672698E-06   2947.573       11.59155    
  6.2672698E-06  7.1017398E-06   2778.337       11.18209    
  7.1017398E-06  8.0473301E-06   2388.286       11.12337    
  8.0473301E-06  9.1188203E-06   2769.818       14.18978    
  9.1188203E-06  1.0333000E-05   1507.956       9.330721    
  1.0333000E-05  1.1708800E-05   1790.196       11.89648    
  1.1708800E-05  1.3267800E-05   1807.754       9.195493    
  1.3267800E-05  1.5034400E-05   1224.197       12.62678    
  1.5034400E-05  1.7036200E-05   1115.487       13.12966    
  1.7036200E-05  1.9304500E-05   747.3383       12.95335    
  1.9304500E-05  2.1334799E-05   783.6352       15.37882    
  2.1334799E-05  2.1874899E-05   869.0361       17.93787    
  2.1874899E-05  2.3578599E-05   684.3456       17.81052    
  2.3578599E-05  2.4175501E-05   546.0765       35.02202    
  2.4175501E-05  2.4787500E-05   355.1374       26.56091    
  2.4787500E-05  2.6058400E-05   547.7065       16.92192    
  2.6058400E-05  2.8087899E-05   786.9697       12.27958    
  2.8087899E-05  3.1827800E-05   578.3433       10.51802    
  3.1827800E-05  3.4306700E-05   388.1467       15.10744    
  3.4306700E-05  3.5175199E-05   262.4771       30.62551    
  3.5175199E-05  3.6065601E-05   99.33755       30.44125    
  3.6065601E-05  4.0867701E-05   318.5123       16.43001    
  4.0867701E-05  4.6309200E-05   341.5314       14.03450    
  4.6309200E-05  5.2475199E-05   340.9362       12.80142    
  5.2475199E-05  5.6562199E-05   224.4491       14.06308    
  5.6562199E-05  5.9462200E-05   266.0210       17.87383    
  5.9462200E-05  6.2510902E-05   187.3947       14.62070    
  6.2510902E-05  6.7379500E-05   205.1140       14.17909    
  6.7379500E-05  7.6350902E-05   202.4790       11.81439    
  7.6350902E-05  8.6516899E-05   133.9046       11.01640    
  8.6516899E-05  9.8036500E-05   74.16762       13.05251    
  9.8036500E-05  1.1109000E-04   146.0804       11.30284    
  1.1109000E-04  1.1678600E-04   111.8049       14.44235    
  1.1678600E-04  1.2277300E-04   103.0018       21.85872    
  1.2277300E-04  1.2906799E-04   106.8871       15.78825    
  1.2906799E-04  1.3568600E-04   196.7253       18.93101    
  1.3568600E-04  1.4264201E-04   76.99290       20.53106    
  1.4264201E-04  1.4995600E-04   58.88074       21.96303    
  1.4995600E-04  1.5764400E-04   59.72985       25.06498    
  1.5764400E-04  1.6163501E-04   54.68320       51.65388    
  1.6163501E-04  1.6572700E-04   58.59520       22.65365    
  1.6572700E-04  1.6992200E-04   43.77262       25.16860    
  1.6992200E-04  1.7422400E-04   56.56559       22.42296    
  1.7422400E-04  1.8315599E-04   65.55329       14.66720    
  1.8315599E-04  1.9254700E-04   78.59713       16.29090    
  1.9254700E-04  2.0241900E-04   59.31937       20.12088    
  2.0241900E-04  2.1279699E-04   53.94725       18.14739    
  2.1279699E-04  2.2370800E-04   62.41337       17.75443    
  2.2370800E-04  2.3517800E-04   56.87099       15.99661    
  2.3517800E-04  2.4723500E-04   58.75165       17.38467    
  2.4723500E-04  2.5991100E-04   45.68363       17.01260    
  2.5991100E-04  2.7323700E-04   69.12553       19.19939    
  2.7323700E-04  2.8015400E-04   53.67895       18.59672    
  2.8015400E-04  2.8724599E-04   29.86289       25.74545    
  2.8724599E-04  2.9451799E-04   54.47953       23.99182    
  2.9451799E-04  3.0197401E-04   43.53584       25.40451    
  3.0197401E-04  3.0961799E-04   44.42346       23.04629    
  3.0961799E-04  3.1745600E-04   31.68655       20.85869    
  3.1745600E-04  3.3373301E-04   35.06438       15.07019    
  3.3373301E-04  3.5084400E-04   45.54128       15.69028    
  3.5084400E-04  3.6883200E-04   31.45457       15.37084    
  3.6883200E-04  3.8774201E-04   24.20735       15.74568    
  3.8774201E-04  4.0762199E-04   32.08278       19.78225    
  4.0762199E-04  4.2852099E-04   31.35903       16.91923    
  4.2852099E-04  4.5049199E-04   26.71698       16.78144    
  4.5049199E-04  4.7358900E-04   21.79722       17.06685    
  4.7358900E-04  4.9787102E-04   22.81706       15.84455    
  4.9787102E-04  5.1047403E-04   22.73969       25.08870    
  5.1047403E-04  5.2339700E-04   24.10617       23.04937    
  5.2339700E-04  5.3664698E-04   17.53131       27.10806    
  5.3664698E-04  5.5023201E-04   23.93036       16.48545    
  5.5023201E-04  5.7844300E-04   17.33405       16.13519    
  5.7844300E-04  6.0810102E-04   15.68629       18.27905    
  6.0810102E-04  6.3927902E-04   20.26110       13.63455    
  6.3927902E-04  6.7205500E-04   15.32661       21.10450    
  6.7205500E-04  7.0651202E-04   14.16282       22.58157    
  7.0651202E-04  7.4273598E-04   11.04551       15.34513    
  7.4273598E-04  7.8081700E-04   14.10839       21.27938    
  7.8081700E-04  8.2085002E-04   7.356663       22.23400    
  8.2085002E-04  8.6293602E-04   7.480330       14.37605    
  8.6293602E-04  9.0717903E-04   5.799041       13.86285    
  9.0717903E-04  9.5369201E-04   6.465541       15.60216    
  9.5369201E-04  9.6163998E-04   3.661268       41.49998    
  9.6163998E-04  9.7783399E-04   5.303314       24.38093    
  9.7783399E-04  1.0025901E-03   6.735844       22.69892    
  1.0025901E-03  1.0539900E-03   4.134871       16.40961    
  1.0539900E-03  1.1080300E-03   6.895404       21.45074    
  1.1080300E-03  1.1648400E-03   5.260772       13.62681    
  1.1648400E-03  1.1943300E-03   4.531276       19.05112    
  1.1943300E-03  1.2245600E-03   4.043564       19.77316    
  1.2245600E-03  1.2873500E-03   5.228613       14.63528    
  1.2873500E-03  1.3533500E-03   4.418140       12.81219    
  1.3533500E-03  1.4227401E-03   7.286964       15.80115    
  1.4227401E-03  1.4956900E-03   5.698278       14.62440    
  1.4956900E-03  1.5335500E-03   4.222629       20.18766    
  1.5335500E-03  1.5723699E-03   3.683472       18.48761    
  1.5723699E-03  1.6121800E-03   7.166879       23.08649    
  1.6121800E-03  1.6529900E-03   5.416265       18.22806    
  1.6529900E-03  1.7377400E-03   4.713599       18.24450    
  1.7377400E-03  1.8268300E-03   3.725517       12.41459    
  1.8268300E-03  1.8730800E-03   6.833163       23.69880    
  1.8730800E-03  1.9205000E-03   3.935624       15.74305    
  1.9205000E-03  1.9691200E-03   4.172812       27.85734    
  1.9691200E-03  2.0189700E-03   3.508509       20.38647    
  2.0189700E-03  2.1224800E-03   4.894453       13.84554    
  2.1224800E-03  2.2313001E-03   3.963594       19.02619    
  2.2313001E-03  2.2688799E-03   3.298102       23.93341    
  2.2688799E-03  2.3068599E-03   6.849805       37.97279    
  2.3068599E-03  2.3457000E-03   5.308236       25.46353    
  2.3457000E-03  2.3652499E-03   2.719755       40.83314    
  2.3652499E-03  2.3852000E-03   2.220770       25.25545    
  2.3852000E-03  2.4251300E-03   4.225491       28.77995    
  2.4251300E-03  2.4659701E-03   4.142556       26.95990    
  2.4659701E-03  2.5923999E-03   3.380344       16.45211    
  2.5923999E-03  2.7253199E-03   3.877913       15.56137    
  2.7253199E-03  2.8650500E-03   2.266671       17.12465    
  2.8650500E-03  3.0119400E-03   1.707991       20.72683    
  3.0119400E-03  3.0881900E-03   2.802677       30.51550    
  3.0881900E-03  3.1663701E-03   2.318304       22.50492    
  3.1663701E-03  3.2465300E-03   2.439421       28.98888    
  3.2465300E-03  3.3287101E-03   2.867460       28.04747    
  3.3287101E-03  3.4993801E-03   2.936521       16.04251    
  3.4993801E-03  3.6787901E-03   3.025604       16.52343    
  3.6787901E-03  3.8674099E-03   2.402491       17.38055    
  3.8674099E-03  4.0656999E-03   3.053534       16.76250    
  4.0656999E-03  4.2741499E-03   2.387073       17.46310    
  4.2741499E-03  4.4932901E-03   2.070831       19.91786    
  4.4932901E-03  4.6070400E-03   2.652832       28.12377    
  4.6070400E-03  4.7236700E-03   1.617568       20.80519    
  4.7236700E-03  4.8432499E-03   2.999986       22.31212    
  4.8432499E-03  4.9658502E-03   1.735713       21.07429    
  4.9658502E-03  5.2204598E-03   2.904622       19.69979    
  5.2204598E-03  5.4881200E-03   1.663526       22.36923    
  5.4881200E-03  5.7695000E-03   2.007231       19.48025    
  5.7695000E-03  5.9155500E-03   1.906001       23.39787    
  5.9155500E-03  6.0653100E-03   1.063845       24.73721    
  6.0653100E-03  6.2188501E-03   1.418513       23.42919    
  6.2188501E-03  6.3762800E-03   2.489484       33.82562    
  6.3762800E-03  6.5377001E-03   1.530394       31.72919    
  6.5377001E-03  6.5923799E-03   2.620347       51.65451    
  6.5923799E-03  6.6475999E-03   2.588474       37.86823    
  6.6475999E-03  6.7031998E-03   1.055734       32.13906    
  6.7031998E-03  6.8728901E-03   1.169765       22.30427    
  6.8728901E-03  7.0468802E-03   2.480751       32.27332    
  7.0468802E-03  7.2252699E-03   1.380090       33.95386    
  7.2252699E-03  7.4081798E-03   1.376780       21.63669    
  7.4081798E-03  7.5957198E-03   2.108995       23.16198    
  7.5957198E-03  7.7880099E-03  0.9321792       25.27056    
  7.7880099E-03  7.9851598E-03   2.430150       28.35223    
  7.9851598E-03  8.1873098E-03  0.6371166       23.07014    
  8.1873098E-03  8.3945701E-03  0.7482514       27.82989    
  8.3945701E-03  8.6070802E-03  0.6109360       33.15612    
  8.6070802E-03  8.8249696E-03   1.294804       39.43965    
  8.8249696E-03  9.0483697E-03   1.424064       24.89983    
  9.0483697E-03  9.2774397E-03   1.306012       34.13315    
  9.2774397E-03  9.5122904E-03   1.709976       32.99551    
  9.5122904E-03  9.7530996E-03   1.173898       23.61574    
  9.7530996E-03  9.9999998E-03  0.8151805       32.71995    
  9.9999998E-03  1.0253200E-02   1.228281       28.81388    
  1.0253200E-02  1.0512700E-02  0.9919447       26.64838    
  1.0512700E-02  1.0778800E-02  0.6364645       24.71033    
  1.0778800E-02  1.1051700E-02  0.7625761       28.04860    
  1.1051700E-02  1.1331500E-02  0.7884287       30.11814    
  1.1331500E-02  1.1618300E-02  0.9905971       26.41759    
  1.1618300E-02  1.1912500E-02  0.6647575       31.73237    
  1.1912500E-02  1.2214000E-02   1.050462       19.64516    
  1.2214000E-02  1.2523200E-02  0.9121955       23.70337    
  1.2523200E-02  1.2840200E-02  0.8247805       37.15555    
  1.2840200E-02  1.3165300E-02  0.7109142       25.20184    
  1.3165300E-02  1.3498600E-02  0.7545944       30.53882    
  1.3498600E-02  1.3840300E-02  0.4766762       27.06036    
  1.3840300E-02  1.4190700E-02  0.5327173       24.78986    
  1.4190700E-02  1.4549900E-02   1.204959       20.52522    
  1.4549900E-02  1.4918300E-02  0.5957969       24.22000    
  1.4918300E-02  1.5295900E-02  0.7868316       29.07008    
  1.5295900E-02  1.5683100E-02  0.9585946       24.79061    
  1.5683100E-02  1.6080100E-02  0.6026223       26.72750    
  1.6080100E-02  1.6487200E-02  0.5926018       25.48974    
  1.6487200E-02  1.6904600E-02  0.9139032       27.72300    
  1.6904600E-02  1.7332500E-02  0.6405135       21.02281    
  1.7332500E-02  1.7771300E-02  0.4060236       25.72226    
  1.7771300E-02  1.8221200E-02  0.5452478       21.72742    
  1.8221200E-02  1.8682500E-02  0.4975931       28.23860    
  1.8682500E-02  1.9155400E-02   1.207604       25.32458    
  1.9155400E-02  1.9640300E-02  0.4844168       31.53211    
  1.9640300E-02  2.0000000E-02  0.6800472       27.03153    
  2.0000000E-02  2.5174996E-02  0.5035338       10.44047    
  2.5174996E-02  3.1689022E-02  0.5486835       9.367207    
  3.1689022E-02  3.9888553E-02  0.5532319       8.886544    
  3.9888553E-02  5.0209712E-02  0.4243422       8.203770    
  5.0209712E-02  6.3201472E-02  0.5097743       8.773451    
  6.3201472E-02  7.9554841E-02  0.3593870       8.212303    
  7.9554841E-02  0.1001396      0.2667911       8.892484    
  0.1001396      0.1260508      0.2340465       9.219658    
  0.1260508      0.1586664      0.1776519       8.649679    
  0.1586664      0.1997213      0.1436451       10.50050    
  0.1997213      0.2513991      5.1438212E-02   14.18890    
  0.2513991      0.3164486      2.7740026E-02   19.31264    
  0.3164486      0.3983297      6.1418763E-03   31.00384    
  0.3983297      0.5013974       0.000000       0.000000    
  0.5013974      0.6311339       0.000000       0.000000    
  0.6311339      0.7944397       0.000000       0.000000    
  0.7944397       1.000001       0.000000       0.000000    
