 # Detector n:            1   HeIInflux 
 # N. of energy intervals         260
  1.0000100E-14  2.0000000E-13  3.7861597E+10   18.20108    
  2.0000000E-13  2.9297300E-13  8.2699182E+10   23.11522    
  2.9297300E-13  4.2916701E-13  9.9922895E+10   9.987499    
  4.2916701E-13  6.2867300E-13  1.3872872E+11   3.673520    
  6.2867300E-13  9.2092198E-13  2.4669092E+11   6.442280    
  9.2092198E-13  1.3490300E-12  3.0450794E+11   7.070876    
  1.3490300E-12  1.9761499E-12  3.9927860E+11   3.930346    
  1.9761499E-12  2.8947901E-12  5.1962420E+11  0.5672256    
  2.8947901E-12  4.2404799E-12  6.5261765E+11   1.583189    
  4.2404799E-12  6.2117499E-12  7.4002904E+11   1.932219    
  6.2117499E-12  9.0993801E-12  7.7174211E+11   1.083766    
  9.0993801E-12  1.3329400E-11  6.9792504E+11   1.356760    
  1.3329400E-11  1.9525799E-11  5.3738904E+11  0.5456674    
  1.9525799E-11  2.8602700E-11  3.2576569E+11   1.059969    
  2.8602700E-11  4.1899099E-11  1.6167495E+11  0.3284368    
  4.1899099E-11  6.1376598E-11  6.6874487E+10   1.103529    
  6.1376598E-11  8.9908601E-11  2.6517737E+10   2.871907    
  8.9908601E-11  1.3170399E-10  9.1218463E+09   1.362934    
  1.3170399E-10  1.9292901E-10  3.5743493E+09   1.491138    
  1.9292901E-10  2.8261499E-10  1.7357827E+09   1.330303    
  2.8261499E-10  4.1399401E-10  1.0321175E+09   1.401259    
  4.1399401E-10  5.3157900E-10  7.1196173E+08  0.7592100    
  5.3157900E-10  6.2506200E-10  5.8284998E+08  0.8628553    
  6.2506200E-10  6.8256001E-10  5.1079232E+08   1.025071    
  6.8256001E-10  8.3368101E-10  4.3767120E+08  0.6028743    
  8.3368101E-10  8.7642499E-10  3.8023696E+08  0.8332846    
  8.7642499E-10  1.1253500E-09  3.1343146E+08  0.8703396    
  1.1253500E-09  1.4449800E-09  2.4326290E+08   1.370914    
  1.4449800E-09  1.8553900E-09  1.8254651E+08  0.9876662    
  1.8553900E-09  2.3823701E-09  1.4072310E+08   1.185854    
  2.3823701E-09  3.0590199E-09  1.0871631E+08   1.709035    
  3.0590199E-09  3.9278598E-09  8.1078624E+07   1.367717    
  3.9278598E-09  5.0434799E-09  6.2107888E+07   1.706478    
  5.0434799E-09  6.4759500E-09  4.7922992E+07   1.463593    
  6.4759500E-09  8.3152898E-09  3.7128460E+07   1.025948    
  8.3152898E-09  1.0677000E-08  2.8416416E+07   1.122805    
  1.0677000E-08  1.3709600E-08  2.1340952E+07   1.716373    
  1.3709600E-08  1.7603501E-08  1.6797904E+07   1.620274    
  1.7603501E-08  2.2603301E-08  1.2980539E+07   1.498457    
  2.2603301E-08  2.9023200E-08   9798886.       1.233039    
  2.9023200E-08  3.7266499E-08   7642088.       1.778016    
  3.7266499E-08  4.7851199E-08   5670222.       1.072140    
  4.7851199E-08  6.1442101E-08   4289292.       1.275729    
  6.1442101E-08  7.8893301E-08   3219305.       1.756422    
  7.8893301E-08  1.0130100E-07   2484194.       2.288575    
  1.0130100E-07  1.3007300E-07   1866632.       1.108388    
  1.3007300E-07  1.6701701E-07   1397433.       3.028548    
  1.6701701E-07  2.1445400E-07   1109970.       1.511703    
  2.1445400E-07  2.7536399E-07   804764.1       1.084064    
  2.7536399E-07  3.5357499E-07   603134.1       1.615628    
  3.5357499E-07  4.5399901E-07   464860.6       1.939920    
  4.5399901E-07  5.8294700E-07   337893.8      0.3170213    
  5.8294700E-07  7.4851800E-07   257483.9       1.166514    
  7.4851800E-07  9.6111603E-07   197171.3       1.211442    
  9.6111603E-07  1.2341000E-06   147803.1       2.495612    
  1.2341000E-06  1.3638900E-06   119368.3       4.762117    
  1.3638900E-06  1.5073300E-06   107897.5       1.842924    
  1.5073300E-06  1.5846100E-06   94076.20       4.845415    
  1.5846100E-06  1.6658601E-06   93621.78       4.374063    
  1.6658601E-06  1.8410600E-06   84766.62       2.694854    
  1.8410600E-06  2.0346799E-06   74683.62       3.331898    
  2.0346799E-06  2.2486699E-06   65145.39       2.693874    
  2.2486699E-06  2.4851699E-06   55215.46       2.648715    
  2.4851699E-06  2.6125899E-06   49262.39       4.539876    
  2.6125899E-06  2.7465401E-06   53821.22       9.388734    
  2.7465401E-06  2.8634900E-06   48511.55       3.812957    
  2.8634900E-06  3.0353899E-06   43822.09       5.099953    
  3.0353899E-06  3.3546301E-06   38772.03       2.300320    
  3.3546301E-06  3.7074401E-06   34798.48       4.614291    
  3.7074401E-06  4.0973500E-06   32775.23       2.111265    
  4.0973500E-06  4.3074201E-06   30413.84       7.530357    
  4.3074201E-06  4.5282700E-06   26521.95       3.735933    
  4.5282700E-06  5.0045101E-06   24064.74       4.079126    
  5.0045101E-06  5.5308401E-06   24395.29       3.899249    
  5.5308401E-06  6.2672698E-06   16173.82       2.592267    
  6.2672698E-06  7.1017398E-06   15841.42       8.000926    
  7.1017398E-06  8.0473301E-06   13300.78       2.121492    
  8.0473301E-06  9.1188203E-06   11719.96       4.700005    
  9.1188203E-06  1.0333000E-05   10258.76       2.854396    
  1.0333000E-05  1.1708800E-05   8431.884       1.060700    
  1.1708800E-05  1.3267800E-05   7495.358       3.407960    
  1.3267800E-05  1.5034400E-05   6569.546       2.515128    
  1.5034400E-05  1.7036200E-05   5265.652       4.454655    
  1.7036200E-05  1.9304500E-05   4461.779       2.405899    
  1.9304500E-05  2.1334799E-05   4008.079      0.8245698    
  2.1334799E-05  2.1874899E-05   4044.257       5.659502    
  2.1874899E-05  2.3578599E-05   3235.764       5.076599    
  2.3578599E-05  2.4175501E-05   3046.925       9.451460    
  2.4175501E-05  2.4787500E-05   2425.540       4.524760    
  2.4787500E-05  2.6058400E-05   3066.443       5.740984    
  2.6058400E-05  2.8087899E-05   3024.116       4.891264    
  2.8087899E-05  3.1827800E-05   3097.843       4.145714    
  3.1827800E-05  3.4306700E-05   1854.908       4.292271    
  3.4306700E-05  3.5175199E-05   837.8896       9.885608    
  3.5175199E-05  3.6065601E-05   763.7538       15.68282    
  3.6065601E-05  4.0867701E-05   1244.411       3.794582    
  4.0867701E-05  4.6309200E-05   1360.950       4.746255    
  4.6309200E-05  5.2475199E-05   1252.435       3.071618    
  5.2475199E-05  5.6562199E-05   1029.214       5.362947    
  5.6562199E-05  5.9462200E-05   958.5504       9.177057    
  5.9462200E-05  6.2510902E-05   815.0746       7.109532    
  6.2510902E-05  6.7379500E-05   838.2108       5.649018    
  6.7379500E-05  7.6350902E-05   878.7655       6.499496    
  7.6350902E-05  8.6516899E-05   660.9470       2.568432    
  8.6516899E-05  9.8036500E-05   356.2394       3.709358    
  9.8036500E-05  1.1109000E-04   437.5813       2.673730    
  1.1109000E-04  1.1678600E-04   436.8575       8.895250    
  1.1678600E-04  1.2277300E-04   321.1404       11.82403    
  1.2277300E-04  1.2906799E-04   436.3426       7.521458    
  1.2906799E-04  1.3568600E-04   421.4022       4.776188    
  1.3568600E-04  1.4264201E-04   366.9292       3.044513    
  1.4264201E-04  1.4995600E-04   208.6243       10.92400    
  1.4995600E-04  1.5764400E-04   213.4248       16.54600    
  1.5764400E-04  1.6163501E-04   153.9111       21.36329    
  1.6163501E-04  1.6572700E-04   196.2338       16.40799    
  1.6572700E-04  1.6992200E-04   207.5592       11.67427    
  1.6992200E-04  1.7422400E-04   227.9787       14.81161    
  1.7422400E-04  1.8315599E-04   230.0026       7.057498    
  1.8315599E-04  1.9254700E-04   207.9336       10.22164    
  1.9254700E-04  2.0241900E-04   169.8858       4.881139    
  2.0241900E-04  2.1279699E-04   159.0173       9.432332    
  2.1279699E-04  2.2370800E-04   151.9055       8.773149    
  2.2370800E-04  2.3517800E-04   149.1751       8.418193    
  2.3517800E-04  2.4723500E-04   145.0791       6.834348    
  2.4723500E-04  2.5991100E-04   142.5636       4.131390    
  2.5991100E-04  2.7323700E-04   157.8779       14.56882    
  2.7323700E-04  2.8015400E-04   145.4390       7.236281    
  2.8015400E-04  2.8724599E-04   109.5628       16.87268    
  2.8724599E-04  2.9451799E-04   104.1162       15.57807    
  2.9451799E-04  3.0197401E-04   107.9001       8.515521    
  3.0197401E-04  3.0961799E-04   102.9411       12.89776    
  3.0961799E-04  3.1745600E-04   91.04612       24.13571    
  3.1745600E-04  3.3373301E-04   118.4070       4.354756    
  3.3373301E-04  3.5084400E-04   109.4012       2.695698    
  3.5084400E-04  3.6883200E-04   88.69879       9.030782    
  3.6883200E-04  3.8774201E-04   92.28023       11.75939    
  3.8774201E-04  4.0762199E-04   83.78447       5.110700    
  4.0762199E-04  4.2852099E-04   70.20564       6.070761    
  4.2852099E-04  4.5049199E-04   61.60614       11.97252    
  4.5049199E-04  4.7358900E-04   59.58142       7.274378    
  4.7358900E-04  4.9787102E-04   61.37452       2.810205    
  4.9787102E-04  5.1047403E-04   63.34469       14.63047    
  5.1047403E-04  5.2339700E-04   61.93098       15.08292    
  5.2339700E-04  5.3664698E-04   48.14425       14.85660    
  5.3664698E-04  5.5023201E-04   42.11211       9.507342    
  5.5023201E-04  5.7844300E-04   37.54567       3.906244    
  5.7844300E-04  6.0810102E-04   41.72485       18.11664    
  6.0810102E-04  6.3927902E-04   38.07798       7.853275    
  6.3927902E-04  6.7205500E-04   36.09785       7.812529    
  6.7205500E-04  7.0651202E-04   35.55049       16.18474    
  7.0651202E-04  7.4273598E-04   29.34807       11.89620    
  7.4273598E-04  7.8081700E-04   25.86373       13.82140    
  7.8081700E-04  8.2085002E-04   22.84169       12.80826    
  8.2085002E-04  8.6293602E-04   21.69598       15.94413    
  8.6293602E-04  9.0717903E-04   19.07271       12.90690    
  9.0717903E-04  9.5369201E-04   15.08926       17.84183    
  9.5369201E-04  9.6163998E-04   14.71270       38.82041    
  9.6163998E-04  9.7783399E-04   15.18519       10.04461    
  9.7783399E-04  1.0025901E-03   16.02188       12.17114    
  1.0025901E-03  1.0539900E-03   15.21607       5.202744    
  1.0539900E-03  1.1080300E-03   18.59732       4.503180    
  1.1080300E-03  1.1648400E-03   16.20640       8.305699    
  1.1648400E-03  1.1943300E-03   14.44371       5.601046    
  1.1943300E-03  1.2245600E-03   13.63882       17.11438    
  1.2245600E-03  1.2873500E-03   15.21875       10.94887    
  1.2873500E-03  1.3533500E-03   14.68357       12.26574    
  1.3533500E-03  1.4227401E-03   15.20614       13.00313    
  1.4227401E-03  1.4956900E-03   15.63776       13.25267    
  1.4956900E-03  1.5335500E-03   12.20598       19.26645    
  1.5335500E-03  1.5723699E-03   12.05534       13.02630    
  1.5723699E-03  1.6121800E-03   11.95482       20.63665    
  1.6121800E-03  1.6529900E-03   13.72372       6.877511    
  1.6529900E-03  1.7377400E-03   12.80229       1.414508    
  1.7377400E-03  1.8268300E-03   12.81998       5.728994    
  1.8268300E-03  1.8730800E-03   13.12267       9.821358    
  1.8730800E-03  1.9205000E-03   13.75914       5.148602    
  1.9205000E-03  1.9691200E-03   10.50685       6.478343    
  1.9691200E-03  2.0189700E-03   11.00723       12.99497    
  2.0189700E-03  2.1224800E-03   10.14688       5.730492    
  2.1224800E-03  2.2313001E-03   9.276085       12.50631    
  2.2313001E-03  2.2688799E-03   12.33916       10.62780    
  2.2688799E-03  2.3068599E-03   11.32183       11.92984    
  2.3068599E-03  2.3457000E-03   7.929134       10.58550    
  2.3457000E-03  2.3652499E-03   8.255537       19.07511    
  2.3652499E-03  2.3852000E-03   11.35393       22.73487    
  2.3852000E-03  2.4251300E-03   7.813160       13.84685    
  2.4251300E-03  2.4659701E-03   8.271501       13.04014    
  2.4659701E-03  2.5923999E-03   8.533158       6.283099    
  2.5923999E-03  2.7253199E-03   7.100507       5.693239    
  2.7253199E-03  2.8650500E-03   8.374588       5.455499    
  2.8650500E-03  3.0119400E-03   6.628552       13.65681    
  3.0119400E-03  3.0881900E-03   7.274953       13.79044    
  3.0881900E-03  3.1663701E-03   7.534866       7.831227    
  3.1663701E-03  3.2465300E-03   4.973202       19.78642    
  3.2465300E-03  3.3287101E-03   6.243546       6.373472    
  3.3287101E-03  3.4993801E-03   6.343563       11.55332    
  3.4993801E-03  3.6787901E-03   4.958285       11.50891    
  3.6787901E-03  3.8674099E-03   4.771448       20.33087    
  3.8674099E-03  4.0656999E-03   4.996126       3.897123    
  4.0656999E-03  4.2741499E-03   4.591977       10.16422    
  4.2741499E-03  4.4932901E-03   4.277880       11.25882    
  4.4932901E-03  4.6070400E-03   4.070888       12.04512    
  4.6070400E-03  4.7236700E-03   5.074421       19.02615    
  4.7236700E-03  4.8432499E-03   4.392375       15.54514    
  4.8432499E-03  4.9658502E-03   4.092953       8.764421    
  4.9658502E-03  5.2204598E-03   3.707556       7.738506    
  5.2204598E-03  5.4881200E-03   4.429549       13.12642    
  5.4881200E-03  5.7695000E-03   3.597882       14.31743    
  5.7695000E-03  5.9155500E-03   3.394381       8.832241    
  5.9155500E-03  6.0653100E-03   3.855346       20.49663    
  6.0653100E-03  6.2188501E-03   3.427918       7.709501    
  6.2188501E-03  6.3762800E-03   2.400217       39.11348    
  6.3762800E-03  6.5377001E-03   3.198320       5.804059    
  6.5377001E-03  6.5923799E-03   2.751685       25.36941    
  6.5923799E-03  6.6475999E-03   2.227669       34.54769    
  6.6475999E-03  6.7031998E-03   2.868557       26.92197    
  6.7031998E-03  6.8728901E-03   2.630163       18.08953    
  6.8728901E-03  7.0468802E-03   2.373194       12.55255    
  7.0468802E-03  7.2252699E-03   2.052111       20.77005    
  7.2252699E-03  7.4081798E-03   2.439323       14.69132    
  7.4081798E-03  7.5957198E-03   2.245320       15.84770    
  7.5957198E-03  7.7880099E-03   2.568275       36.16088    
  7.7880099E-03  7.9851598E-03   2.759307       10.51765    
  7.9851598E-03  8.1873098E-03   2.662559       21.71978    
  8.1873098E-03  8.3945701E-03   1.750205       19.09761    
  8.3945701E-03  8.6070802E-03   2.086810       15.52669    
  8.6070802E-03  8.8249696E-03   1.489726       10.39138    
  8.8249696E-03  9.0483697E-03   1.757740       12.06014    
  9.0483697E-03  9.2774397E-03   1.561455       29.19662    
  9.2774397E-03  9.5122904E-03   2.034152       27.14684    
  9.5122904E-03  9.7530996E-03   1.848889       8.059688    
  9.7530996E-03  9.9999998E-03   1.701801       8.191036    
  9.9999998E-03  1.0253200E-02   1.461539       9.991115    
  1.0253200E-02  1.0512700E-02   1.998578       6.077336    
  1.0512700E-02  1.0778800E-02   1.870803       8.056685    
  1.0778800E-02  1.1051700E-02   1.941671       17.34360    
  1.1051700E-02  1.1331500E-02   1.395560       26.90314    
  1.1331500E-02  1.1618300E-02   1.356053       18.05097    
  1.1618300E-02  1.1912500E-02   1.120968       11.69289    
  1.1912500E-02  1.2214000E-02   1.661131       11.98686    
  1.2214000E-02  1.2523200E-02   1.102667       6.753516    
  1.2523200E-02  1.2840200E-02   1.290802       15.02108    
  1.2840200E-02  1.3165300E-02   1.249606       9.991163    
  1.3165300E-02  1.3498600E-02   1.624352       7.770563    
  1.3498600E-02  1.3840300E-02   1.397232       15.82433    
  1.3840300E-02  1.4190700E-02   1.555469       18.30126    
  1.4190700E-02  1.4549900E-02   1.122506       14.67455    
  1.4549900E-02  1.4918300E-02   1.157466       18.89332    
  1.4918300E-02  1.5295900E-02   1.271600       23.22458    
  1.5295900E-02  1.5683100E-02  0.8581864       11.21402    
  1.5683100E-02  1.6080100E-02   1.076695       29.62204    
  1.6080100E-02  1.6487200E-02   1.142571       10.25838    
  1.6487200E-02  1.6904600E-02   1.125462       7.324294    
  1.6904600E-02  1.7332500E-02   1.190692       20.63354    
  1.7332500E-02  1.7771300E-02  0.9288493       14.49528    
  1.7771300E-02  1.8221200E-02  0.9144161       22.96640    
  1.8221200E-02  1.8682500E-02  0.9694512       16.60480    
  1.8682500E-02  1.9155400E-02  0.8142224       23.78861    
  1.9155400E-02  1.9640300E-02  0.7905445       10.10055    
  1.9640300E-02  2.0000000E-02  0.4708694       29.20833    
