 # Detector n:  1  HeIInflux 
 # N. of energy intervals 260
  1.0000100E-14  2.0000000E-13  3.8490591E+10   18.12284    
  2.0000000E-13  2.9297300E-13  1.0193734E+11   15.60513    
  2.9297300E-13  4.2916701E-13  9.6958013E+10   14.00232    
  4.2916701E-13  6.2867300E-13  1.3148755E+11   8.910696    
  6.2867300E-13  9.2092198E-13  2.0534986E+11   5.658494    
  9.2092198E-13  1.3490300E-12  2.9786921E+11   4.301916    
  1.3490300E-12  1.9761499E-12  3.7917026E+11   3.801883    
  1.9761499E-12  2.8947901E-12  4.8838299E+11   1.371836    
  2.8947901E-12  4.2404799E-12  6.1327632E+11   1.885925    
  4.2404799E-12  6.2117499E-12  6.7989524E+11   1.487767    
  6.2117499E-12  9.0993801E-12  7.1659500E+11   1.407102    
  9.0993801E-12  1.3329400E-11  6.3625304E+11   1.281204    
  1.3329400E-11  1.9525799E-11  4.7325145E+11   1.136784    
  1.9525799E-11  2.8602700E-11  2.7491310E+11   1.100411    
  2.8602700E-11  4.1899099E-11  1.2032020E+11   1.014809    
  4.1899099E-11  6.1376598E-11  4.2439074E+10   1.093431    
  6.1376598E-11  8.9908601E-11  1.7266225E+10   1.320886    
  8.9908601E-11  1.3170399E-10  9.3451960E+09  0.8899859    
  1.3170399E-10  1.9292901E-10  5.9862794E+09  0.9904088    
  1.9292901E-10  2.8261499E-10  3.9729324E+09   1.054969    
  2.8261499E-10  4.1399401E-10  2.5818964E+09   1.270609    
  4.1399401E-10  5.3157900E-10  1.9257591E+09  0.5075459    
  5.3157900E-10  6.2506200E-10  1.5353780E+09   1.590716    
  6.2506200E-10  6.8256001E-10  1.3755279E+09   2.020738    
  6.8256001E-10  8.3368101E-10  1.2036726E+09   1.419536    
  8.3368101E-10  8.7642499E-10  1.0585521E+09  0.9978997    
  8.7642499E-10  1.1253500E-09  9.0527270E+08  0.7475008    
  1.1253500E-09  1.4449800E-09  7.0802010E+08   1.143215    
  1.4449800E-09  1.8553900E-09  5.4632826E+08  0.9149049    
  1.8553900E-09  2.3823701E-09  4.2538074E+08  0.9598703    
  2.3823701E-09  3.0590199E-09  3.3129341E+08  0.9920905    
  3.0590199E-09  3.9278598E-09  2.6554894E+08   1.113872    
  3.9278598E-09  5.0434799E-09  2.0216861E+08  0.8878183    
  5.0434799E-09  6.4759500E-09  1.5995518E+08  0.7394921    
  6.4759500E-09  8.3152898E-09  1.2440557E+08  0.7847075    
  8.3152898E-09  1.0677000E-08  9.8645992E+07  0.9495178    
  1.0677000E-08  1.3709600E-08  7.5265056E+07   1.095516    
  1.3709600E-08  1.7603501E-08  6.0133200E+07  0.7050388    
  1.7603501E-08  2.2603301E-08  4.5914860E+07   1.047347    
  2.2603301E-08  2.9023200E-08  3.6968716E+07   1.386792    
  2.9023200E-08  3.7266499E-08  2.8916482E+07  0.9541866    
  3.7266499E-08  4.7851199E-08  2.2015846E+07  0.8372729    
  4.7851199E-08  6.1442101E-08  1.7355870E+07  0.6588225    
  6.1442101E-08  7.8893301E-08  1.3356771E+07  0.7445788    
  7.8893301E-08  1.0130100E-07  1.0484667E+07  0.9183137    
  1.0130100E-07  1.3007300E-07   7979922.       1.066392    
  1.3007300E-07  1.6701701E-07   6398176.      0.8564849    
  1.6701701E-07  2.1445400E-07   4862847.      0.9384629    
  2.1445400E-07  2.7536399E-07   3825207.      0.6927165    
  2.7536399E-07  3.5357499E-07   2919864.      0.9759790    
  3.5357499E-07  4.5399901E-07   2299898.       1.181910    
  4.5399901E-07  5.8294700E-07   1758196.      0.6041335    
  5.8294700E-07  7.4851800E-07   1392189.      0.6949309    
  7.4851800E-07  9.6111603E-07   1049659.      0.9040460    
  9.6111603E-07  1.2341000E-06   817398.6      0.7676228    
  1.2341000E-06  1.3638900E-06   691896.4       1.453785    
  1.3638900E-06  1.5073300E-06   618776.2       1.334525    
  1.5073300E-06  1.5846100E-06   559169.5       1.854926    
  1.5846100E-06  1.6658601E-06   535763.4       1.810058    
  1.6658601E-06  1.8410600E-06   496147.2       1.421805    
  1.8410600E-06  2.0346799E-06   443192.3       1.459991    
  2.0346799E-06  2.2486699E-06   399653.4       1.543299    
  2.2486699E-06  2.4851699E-06   369065.1       1.143824    
  2.4851699E-06  2.6125899E-06   337413.5       1.726959    
  2.6125899E-06  2.7465401E-06   316663.4       2.077851    
  2.7465401E-06  2.8634900E-06   302769.2       1.217605    
  2.8634900E-06  3.0353899E-06   299378.1       2.132594    
  3.0353899E-06  3.3546301E-06   262409.8       1.324435    
  3.3546301E-06  3.7074401E-06   237065.4       1.581081    
  3.7074401E-06  4.0973500E-06   215444.0       1.463289    
  4.0973500E-06  4.3074201E-06   196278.8       2.669715    
  4.3074201E-06  4.5282700E-06   184015.7       1.969174    
  4.5282700E-06  5.0045101E-06   170342.8       1.678738    
  5.0045101E-06  5.5308401E-06   166877.2       1.402696    
  5.5308401E-06  6.2672698E-06   122812.2       1.686902    
  6.2672698E-06  7.1017398E-06   118102.2       1.242037    
  7.1017398E-06  8.0473301E-06   104037.0       1.140912    
  8.0473301E-06  9.1188203E-06   90508.30       1.184560    
  9.1188203E-06  1.0333000E-05   78767.61       1.143598    
  1.0333000E-05  1.1708800E-05   68858.02       1.070196    
  1.1708800E-05  1.3267800E-05   60318.81       1.313062    
  1.3267800E-05  1.5034400E-05   51710.20       1.714591    
  1.5034400E-05  1.7036200E-05   44578.41       1.437658    
  1.7036200E-05  1.9304500E-05   39079.19       1.243707    
  1.9304500E-05  2.1334799E-05   34793.78       1.016915    
  2.1334799E-05  2.1874899E-05   32332.64       2.900518    
  2.1874899E-05  2.3578599E-05   30031.73       1.849699    
  2.3578599E-05  2.4175501E-05   28536.27       3.038106    
  2.4175501E-05  2.4787500E-05   26656.57       3.789709    
  2.4787500E-05  2.6058400E-05   27126.17       2.063528    
  2.6058400E-05  2.8087899E-05   26679.47       1.768621    
  2.8087899E-05  3.1827800E-05   27361.43       1.796462    
  3.1827800E-05  3.4306700E-05   17916.56       1.573999    
  3.4306700E-05  3.5175199E-05   9180.097       3.467226    
  3.5175199E-05  3.6065601E-05   8658.314       4.859972    
  3.6065601E-05  4.0867701E-05   11355.29       1.475012    
  4.0867701E-05  4.6309200E-05   12609.64       1.224193    
  4.6309200E-05  5.2475199E-05   11807.99       1.882593    
  5.2475199E-05  5.6562199E-05   10485.59       1.624235    
  5.6562199E-05  5.9462200E-05   9999.643       2.324232    
  5.9462200E-05  6.2510902E-05   9371.597       2.796728    
  6.2510902E-05  6.7379500E-05   9076.273       2.650393    
  6.7379500E-05  7.6350902E-05   8644.116       1.960380    
  7.6350902E-05  8.6516899E-05   6387.884       1.930787    
  8.6516899E-05  9.8036500E-05   3637.552       1.964044    
  9.8036500E-05  1.1109000E-04   4211.959       2.054626    
  1.1109000E-04  1.1678600E-04   4345.049       4.540874    
  1.1678600E-04  1.2277300E-04   3028.557       2.622450    
  1.2277300E-04  1.2906799E-04   4198.697       1.946589    
  1.2906799E-04  1.3568600E-04   4062.111       3.449664    
  1.3568600E-04  1.4264201E-04   3100.519       2.530325    
  1.4264201E-04  1.4995600E-04   2400.783       3.537085    
  1.4995600E-04  1.5764400E-04   2228.633       4.838428    
  1.5764400E-04  1.6163501E-04   1719.164       5.799944    
  1.6163501E-04  1.6572700E-04   2120.427       6.250157    
  1.6572700E-04  1.6992200E-04   2303.181       3.500088    
  1.6992200E-04  1.7422400E-04   2113.717       5.130948    
  1.7422400E-04  1.8315599E-04   2233.790       3.395270    
  1.8315599E-04  1.9254700E-04   2272.239       2.433975    
  1.9254700E-04  2.0241900E-04   2076.120       2.564614    
  2.0241900E-04  2.1279699E-04   1639.921       4.098729    
  2.1279699E-04  2.2370800E-04   1587.047       2.251160    
  2.2370800E-04  2.3517800E-04   1619.503       2.851449    
  2.3517800E-04  2.4723500E-04   1704.207       2.207724    
  2.4723500E-04  2.5991100E-04   1559.168       3.003987    
  2.5991100E-04  2.7323700E-04   1561.598       2.846086    
  2.7323700E-04  2.8015400E-04   1343.581       5.343963    
  2.8015400E-04  2.8724599E-04   1015.324       4.897440    
  2.8724599E-04  2.9451799E-04   1132.369       4.269753    
  2.9451799E-04  3.0197401E-04   1097.002       4.562594    
  3.0197401E-04  3.0961799E-04   1045.914       3.814382    
  3.0961799E-04  3.1745600E-04   1060.825       4.138610    
  3.1745600E-04  3.3373301E-04   1038.948       2.812633    
  3.3373301E-04  3.5084400E-04   1043.755       3.189406    
  3.5084400E-04  3.6883200E-04   804.0218       2.905086    
  3.6883200E-04  3.8774201E-04   812.8854       3.933498    
  3.8774201E-04  4.0762199E-04   813.5339       3.736502    
  4.0762199E-04  4.2852099E-04   615.6490       3.421564    
  4.2852099E-04  4.5049199E-04   641.0498       4.396678    
  4.5049199E-04  4.7358900E-04   606.8998       4.202474    
  4.7358900E-04  4.9787102E-04   548.2616       2.574404    
  4.9787102E-04  5.1047403E-04   642.8121       4.052344    
  5.1047403E-04  5.2339700E-04   533.5091       3.898397    
  5.2339700E-04  5.3664698E-04   448.4323       6.074880    
  5.3664698E-04  5.5023201E-04   515.7122       4.664539    
  5.5023201E-04  5.7844300E-04   455.3857       4.139388    
  5.7844300E-04  6.0810102E-04   411.5693       4.037806    
  6.0810102E-04  6.3927902E-04   369.7406       2.749384    
  6.3927902E-04  6.7205500E-04   313.2721       2.689360    
  6.7205500E-04  7.0651202E-04   299.2487       3.673356    
  7.0651202E-04  7.4273598E-04   289.5904       3.239572    
  7.4273598E-04  7.8081700E-04   239.1864       4.032094    
  7.8081700E-04  8.2085002E-04   187.8491       4.867415    
  8.2085002E-04  8.6293602E-04   178.1318       3.198127    
  8.6293602E-04  9.0717903E-04   175.3139       3.584400    
  9.0717903E-04  9.5369201E-04   142.8874       3.836030    
  9.5369201E-04  9.6163998E-04   139.9197       10.62600    
  9.6163998E-04  9.7783399E-04   139.1766       5.146302    
  9.7783399E-04  1.0025901E-03   123.7282       4.283061    
  1.0025901E-03  1.0539900E-03   121.7642       3.361028    
  1.0539900E-03  1.1080300E-03   117.3713       4.810782    
  1.1080300E-03  1.1648400E-03   100.5837       5.030264    
  1.1648400E-03  1.1943300E-03   98.02886       4.173862    
  1.1943300E-03  1.2245600E-03   102.6646       6.217433    
  1.2245600E-03  1.2873500E-03   95.57244       4.584108    
  1.2873500E-03  1.3533500E-03   82.62630       6.388095    
  1.3533500E-03  1.4227401E-03   87.91263       4.944152    
  1.4227401E-03  1.4956900E-03   85.16295       4.663095    
  1.4956900E-03  1.5335500E-03   75.55913       3.540370    
  1.5335500E-03  1.5723699E-03   79.09499       8.004817    
  1.5723699E-03  1.6121800E-03   80.72281       6.630749    
  1.6121800E-03  1.6529900E-03   74.36082       6.401542    
  1.6529900E-03  1.7377400E-03   68.08607       3.622367    
  1.7377400E-03  1.8268300E-03   64.27239       4.852509    
  1.8268300E-03  1.8730800E-03   63.03706       6.299149    
  1.8730800E-03  1.9205000E-03   61.09219       5.385448    
  1.9205000E-03  1.9691200E-03   57.57041       6.023666    
  1.9691200E-03  2.0189700E-03   58.27649       5.897876    
  2.0189700E-03  2.1224800E-03   51.74292       4.155795    
  2.1224800E-03  2.2313001E-03   48.67777       4.982832    
  2.2313001E-03  2.2688799E-03   47.92754       9.230063    
  2.2688799E-03  2.3068599E-03   49.36512       9.254894    
  2.3068599E-03  2.3457000E-03   43.40080       10.08283    
  2.3457000E-03  2.3652499E-03   41.51523       15.07317    
  2.3652499E-03  2.3852000E-03   46.04588       11.11261    
  2.3852000E-03  2.4251300E-03   38.05154       9.661309    
  2.4251300E-03  2.4659701E-03   46.43544       7.695399    
  2.4659701E-03  2.5923999E-03   36.55248       6.684451    
  2.5923999E-03  2.7253199E-03   32.67374       5.837141    
  2.7253199E-03  2.8650500E-03   26.05029       5.127923    
  2.8650500E-03  3.0119400E-03   23.20172       4.619281    
  3.0119400E-03  3.0881900E-03   23.21944       12.04869    
  3.0881900E-03  3.1663701E-03   22.78853       7.363244    
  3.1663701E-03  3.2465300E-03   20.37902       8.778873    
  3.2465300E-03  3.3287101E-03   21.46280       6.696599    
  3.3287101E-03  3.4993801E-03   19.53903       5.922541    
  3.4993801E-03  3.6787901E-03   16.21784       6.639152    
  3.6787901E-03  3.8674099E-03   16.77171       5.365359    
  3.8674099E-03  4.0656999E-03   16.68773       5.915440    
  4.0656999E-03  4.2741499E-03   11.54959       6.919590    
  4.2741499E-03  4.4932901E-03   14.33171       6.131830    
  4.4932901E-03  4.6070400E-03   14.99749       10.14330    
  4.6070400E-03  4.7236700E-03   15.92163       8.754171    
  4.7236700E-03  4.8432499E-03   11.50115       9.939816    
  4.8432499E-03  4.9658502E-03   12.37856       9.169068    
  4.9658502E-03  5.2204598E-03   11.60387       8.212751    
  5.2204598E-03  5.4881200E-03   9.419589       8.188315    
  5.4881200E-03  5.7695000E-03   9.855577       8.652308    
  5.7695000E-03  5.9155500E-03   8.290419       10.57491    
  5.9155500E-03  6.0653100E-03   8.591842       9.608027    
  6.0653100E-03  6.2188501E-03   8.864135       14.72099    
  6.2188501E-03  6.3762800E-03   7.245653       13.10386    
  6.3762800E-03  6.5377001E-03   8.265255       12.44524    
  6.5377001E-03  6.5923799E-03   8.569684       15.33965    
  6.5923799E-03  6.6475999E-03   8.582202       17.96003    
  6.6475999E-03  6.7031998E-03   7.032359       21.87565    
  6.7031998E-03  6.8728901E-03   8.556748       10.36884    
  6.8728901E-03  7.0468802E-03   7.267386       11.85660    
  7.0468802E-03  7.2252699E-03   7.520810       13.85349    
  7.2252699E-03  7.4081798E-03   7.423855       12.98316    
  7.4081798E-03  7.5957198E-03   6.278543       13.41812    
  7.5957198E-03  7.7880099E-03   5.307054       12.25714    
  7.7880099E-03  7.9851598E-03   6.475224       10.98053    
  7.9851598E-03  8.1873098E-03   6.889788       11.42520    
  8.1873098E-03  8.3945701E-03   5.955561       13.22586    
  8.3945701E-03  8.6070802E-03   4.893467       11.95225    
  8.6070802E-03  8.8249696E-03   3.994883       11.89024    
  8.8249696E-03  9.0483697E-03   5.109350       11.69298    
  9.0483697E-03  9.2774397E-03   5.511626       13.24748    
  9.2774397E-03  9.5122904E-03   3.796540       16.25216    
  9.5122904E-03  9.7530996E-03   4.354492       8.997441    
  9.7530996E-03  9.9999998E-03   4.428618       13.29344    
  9.9999998E-03  1.0253200E-02   4.788537       9.774275    
  1.0253200E-02  1.0512700E-02   3.621137       11.72150    
  1.0512700E-02  1.0778800E-02   3.548995       10.98471    
  1.0778800E-02  1.1051700E-02   3.479835       8.307341    
  1.1051700E-02  1.1331500E-02   3.143447       17.77868    
  1.1331500E-02  1.1618300E-02   3.080976       15.14528    
  1.1618300E-02  1.1912500E-02   4.249566       15.23066    
  1.1912500E-02  1.2214000E-02   3.033862       12.82727    
  1.2214000E-02  1.2523200E-02   2.660202       13.70960    
  1.2523200E-02  1.2840200E-02   2.886539       13.13292    
  1.2840200E-02  1.3165300E-02   2.882765       9.394830    
  1.3165300E-02  1.3498600E-02   3.020541       14.62103    
  1.3498600E-02  1.3840300E-02   2.695563       15.16631    
  1.3840300E-02  1.4190700E-02   2.759371       11.45703    
  1.4190700E-02  1.4549900E-02   2.774207       12.61727    
  1.4549900E-02  1.4918300E-02   2.350086       13.55350    
  1.4918300E-02  1.5295900E-02   2.544153       13.83052    
  1.5295900E-02  1.5683100E-02   2.346344       9.219419    
  1.5683100E-02  1.6080100E-02   2.370049       10.98687    
  1.6080100E-02  1.6487200E-02   2.074381       10.91192    
  1.6487200E-02  1.6904600E-02   1.811064       17.06072    
  1.6904600E-02  1.7332500E-02   1.846615       14.69649    
  1.7332500E-02  1.7771300E-02   1.569497       14.18135    
  1.7771300E-02  1.8221200E-02   2.500718       10.88230    
  1.8221200E-02  1.8682500E-02   1.251915       20.69907    
  1.8682500E-02  1.9155400E-02   1.419576       14.12840    
  1.9155400E-02  1.9640300E-02   1.978075       13.97396    
  1.9640300E-02  2.0000000E-02   1.574197       17.63304    
