 # Detector n:  1  HeIInflux 
 # N. of energy intervals 260
  1.0000100E-14  2.0000000E-13  3.8719971E+10   11.65266    
  2.0000000E-13  2.9297300E-13  9.1770569E+10   18.79920    
  2.9297300E-13  4.2916701E-13  1.4251355E+11   12.57132    
  4.2916701E-13  6.2867300E-13  2.0351504E+11   9.491505    
  6.2867300E-13  9.2092198E-13  2.3350174E+11   5.492620    
  9.2092198E-13  1.3490300E-12  3.5178493E+11   4.495717    
  1.3490300E-12  1.9761499E-12  4.4135868E+11   2.271993    
  1.9761499E-12  2.8947901E-12  5.9947575E+11   2.368676    
  2.8947901E-12  4.2404799E-12  7.1877021E+11   2.028379    
  4.2404799E-12  6.2117499E-12  8.3673422E+11   1.603372    
  6.2117499E-12  9.0993801E-12  8.6095076E+11  0.6965970    
  9.0993801E-12  1.3329400E-11  7.6396174E+11  0.9145797    
  1.3329400E-11  1.9525799E-11  6.0332022E+11  0.6452755    
  1.9525799E-11  2.8602700E-11  3.7731418E+11   1.363407    
  2.8602700E-11  4.1899099E-11  1.8219042E+11   1.159145    
  4.1899099E-11  6.1376598E-11  7.9214666E+10   1.428419    
  6.1376598E-11  8.9908601E-11  3.3218023E+10   1.393630    
  8.9908601E-11  1.3170399E-10  1.4175726E+10   1.465778    
  1.3170399E-10  1.9292901E-10  6.5668844E+09   1.479556    
  1.9292901E-10  2.8261499E-10  3.6546673E+09   1.287221    
  2.8261499E-10  4.1399401E-10  2.3003528E+09   1.221708    
  4.1399401E-10  5.3157900E-10  1.6902243E+09   1.254858    
  5.3157900E-10  6.2506200E-10  1.3699155E+09   1.349975    
  6.2506200E-10  6.8256001E-10  1.1762500E+09   1.791665    
  6.8256001E-10  8.3368101E-10  1.0566569E+09  0.8638903    
  8.3368101E-10  8.7642499E-10  9.0947878E+08   1.745182    
  8.7642499E-10  1.1253500E-09  7.8882618E+08   1.248894    
  1.1253500E-09  1.4449800E-09  6.0310630E+08   1.165338    
  1.4449800E-09  1.8553900E-09  4.7102790E+08   1.331312    
  1.8553900E-09  2.3823701E-09  3.6563894E+08   1.202865    
  2.3823701E-09  3.0590199E-09  2.8406598E+08  0.9781878    
  3.0590199E-09  3.9278598E-09  2.1804611E+08  0.9715794    
  3.9278598E-09  5.0434799E-09  1.7476757E+08   1.053035    
  5.0434799E-09  6.4759500E-09  1.3797582E+08   1.685702    
  6.4759500E-09  8.3152898E-09  1.0483254E+08   1.046119    
  8.3152898E-09  1.0677000E-08  8.4723896E+07   1.005396    
  1.0677000E-08  1.3709600E-08  6.6783920E+07   1.380990    
  1.3709600E-08  1.7603501E-08  5.1858952E+07   1.109008    
  1.7603501E-08  2.2603301E-08  4.0101756E+07   1.190016    
  2.2603301E-08  2.9023200E-08  3.1257070E+07  0.5520699    
  2.9023200E-08  3.7266499E-08  2.4744864E+07   1.155998    
  3.7266499E-08  4.7851199E-08  1.9676314E+07   1.583634    
  4.7851199E-08  6.1442101E-08  1.5266593E+07   1.224735    
  6.1442101E-08  7.8893301E-08  1.1887368E+07  0.7841446    
  7.8893301E-08  1.0130100E-07   9271574.      0.9323483    
  1.0130100E-07  1.3007300E-07   6976124.      0.8582484    
  1.3007300E-07  1.6701701E-07   5586307.      0.8975943    
  1.6701701E-07  2.1445400E-07   4377656.      0.7834103    
  2.1445400E-07  2.7536399E-07   3396783.       1.334040    
  2.7536399E-07  3.5357499E-07   2665196.      0.8304720    
  3.5357499E-07  4.5399901E-07   2089645.      0.9294058    
  4.5399901E-07  5.8294700E-07   1605683.       1.064339    
  5.8294700E-07  7.4851800E-07   1255169.       1.048695    
  7.4851800E-07  9.6111603E-07   971789.3       1.187183    
  9.6111603E-07  1.2341000E-06   754053.3      0.8160331    
  1.2341000E-06  1.3638900E-06   613471.7       1.705516    
  1.3638900E-06  1.5073300E-06   559372.6       1.685011    
  1.5073300E-06  1.5846100E-06   523047.3       2.753044    
  1.5846100E-06  1.6658601E-06   503434.3       2.599734    
  1.6658601E-06  1.8410600E-06   464054.7       1.197630    
  1.8410600E-06  2.0346799E-06   408136.8       1.318606    
  2.0346799E-06  2.2486699E-06   377881.1       1.263987    
  2.2486699E-06  2.4851699E-06   329557.1       1.869391    
  2.4851699E-06  2.6125899E-06   308146.1       2.285762    
  2.6125899E-06  2.7465401E-06   289470.1       3.337947    
  2.7465401E-06  2.8634900E-06   279905.9       2.233958    
  2.8634900E-06  3.0353899E-06   266815.8       1.479008    
  3.0353899E-06  3.3546301E-06   243061.2       1.253199    
  3.3546301E-06  3.7074401E-06   224429.0       1.068557    
  3.7074401E-06  4.0973500E-06   195028.2      0.9661157    
  4.0973500E-06  4.3074201E-06   183133.2       2.720274    
  4.3074201E-06  4.5282700E-06   178467.2       2.099275    
  4.5282700E-06  5.0045101E-06   162337.9       1.407222    
  5.0045101E-06  5.5308401E-06   160213.4       1.747618    
  5.5308401E-06  6.2672698E-06   113602.1       1.344626    
  6.2672698E-06  7.1017398E-06   109975.8       1.327289    
  7.1017398E-06  8.0473301E-06   95300.15      0.7645673    
  8.0473301E-06  9.1188203E-06   83921.11       1.721175    
  9.1188203E-06  1.0333000E-05   73736.84       1.799672    
  1.0333000E-05  1.1708800E-05   63974.57       1.487872    
  1.1708800E-05  1.3267800E-05   55797.50       1.604798    
  1.3267800E-05  1.5034400E-05   48552.05       1.442844    
  1.5034400E-05  1.7036200E-05   42617.40       1.622451    
  1.7036200E-05  1.9304500E-05   36083.32       1.480308    
  1.9304500E-05  2.1334799E-05   32427.71       2.211590    
  2.1334799E-05  2.1874899E-05   30559.43       4.026112    
  2.1874899E-05  2.3578599E-05   29068.17       1.908993    
  2.3578599E-05  2.4175501E-05   26924.39       3.976571    
  2.4175501E-05  2.4787500E-05   24380.37       3.057334    
  2.4787500E-05  2.6058400E-05   25533.28       2.771005    
  2.6058400E-05  2.8087899E-05   25110.85       1.498416    
  2.8087899E-05  3.1827800E-05   27383.56       1.383943    
  3.1827800E-05  3.4306700E-05   16919.51       2.314373    
  3.4306700E-05  3.5175199E-05   9428.660       6.197552    
  3.5175199E-05  3.6065601E-05   8853.368       6.359704    
  3.6065601E-05  4.0867701E-05   10896.89       1.490708    
  4.0867701E-05  4.6309200E-05   11902.26       1.315402    
  4.6309200E-05  5.2475199E-05   10996.06       1.064867    
  5.2475199E-05  5.6562199E-05   10060.22       2.108838    
  5.6562199E-05  5.9462200E-05   9697.864       3.129230    
  5.9462200E-05  6.2510902E-05   8927.219       1.987954    
  6.2510902E-05  6.7379500E-05   8833.078       1.649886    
  6.7379500E-05  7.6350902E-05   8433.002       1.590720    
  7.6350902E-05  8.6516899E-05   6217.312       1.330066    
  8.6516899E-05  9.8036500E-05   3502.402       2.880471    
  9.8036500E-05  1.1109000E-04   4262.737       2.147676    
  1.1109000E-04  1.1678600E-04   4105.139       2.815221    
  1.1678600E-04  1.2277300E-04   2974.073       2.089235    
  1.2277300E-04  1.2906799E-04   4236.510       1.472077    
  1.2906799E-04  1.3568600E-04   4147.968       3.174104    
  1.3568600E-04  1.4264201E-04   3161.170       3.291378    
  1.4264201E-04  1.4995600E-04   2228.691       2.325878    
  1.4995600E-04  1.5764400E-04   2146.867       4.464009    
  1.5764400E-04  1.6163501E-04   1757.998       4.699143    
  1.6163501E-04  1.6572700E-04   1990.395       3.912360    
  1.6572700E-04  1.6992200E-04   2024.690       4.761204    
  1.6992200E-04  1.7422400E-04   2215.292       3.927271    
  1.7422400E-04  1.8315599E-04   2252.020       3.535965    
  1.8315599E-04  1.9254700E-04   2163.709       1.871230    
  1.9254700E-04  2.0241900E-04   2014.571       3.102897    
  2.0241900E-04  2.1279699E-04   1656.835       3.549963    
  2.1279699E-04  2.2370800E-04   1683.976       3.015816    
  2.2370800E-04  2.3517800E-04   1534.951       3.873485    
  2.3517800E-04  2.4723500E-04   1520.032       2.263769    
  2.4723500E-04  2.5991100E-04   1529.838       3.211611    
  2.5991100E-04  2.7323700E-04   1711.223       2.469812    
  2.7323700E-04  2.8015400E-04   1362.443       3.911876    
  2.8015400E-04  2.8724599E-04   1024.368       3.661180    
  2.8724599E-04  2.9451799E-04   1020.382       4.560542    
  2.9451799E-04  3.0197401E-04   1164.004       5.270419    
  3.0197401E-04  3.0961799E-04   1027.177       3.433071    
  3.0961799E-04  3.1745600E-04   1032.616       4.222100    
  3.1745600E-04  3.3373301E-04   1044.244       3.469432    
  3.3373301E-04  3.5084400E-04   1009.446       3.356881    
  3.5084400E-04  3.6883200E-04   870.0441       2.291311    
  3.6883200E-04  3.8774201E-04   796.4031       3.686341    
  3.8774201E-04  4.0762199E-04   809.8573       2.969771    
  4.0762199E-04  4.2852099E-04   662.7132       3.422846    
  4.2852099E-04  4.5049199E-04   574.7252       3.411510    
  4.5049199E-04  4.7358900E-04   595.8205       2.510804    
  4.7358900E-04  4.9787102E-04   584.1786       2.552765    
  4.9787102E-04  5.1047403E-04   566.7059       4.480309    
  5.1047403E-04  5.2339700E-04   606.4120       3.472705    
  5.2339700E-04  5.3664698E-04   397.1147       7.024982    
  5.3664698E-04  5.5023201E-04   496.8529       5.328045    
  5.5023201E-04  5.7844300E-04   423.7638       3.889455    
  5.7844300E-04  6.0810102E-04   415.5873       3.289219    
  6.0810102E-04  6.3927902E-04   375.7967       3.373952    
  6.3927902E-04  6.7205500E-04   299.9708       3.435470    
  6.7205500E-04  7.0651202E-04   342.7370       2.274225    
  7.0651202E-04  7.4273598E-04   275.7127       3.384945    
  7.4273598E-04  7.8081700E-04   274.3557       4.564106    
  7.8081700E-04  8.2085002E-04   192.4453       3.528338    
  8.2085002E-04  8.6293602E-04   184.6977       2.803938    
  8.6293602E-04  9.0717903E-04   154.4741       4.332126    
  9.0717903E-04  9.5369201E-04   153.2187       4.388486    
  9.5369201E-04  9.6163998E-04   135.4706       8.245708    
  9.6163998E-04  9.7783399E-04   139.2822       6.481619    
  9.7783399E-04  1.0025901E-03   135.5512       7.220665    
  1.0025901E-03  1.0539900E-03   119.1789       5.364154    
  1.0539900E-03  1.1080300E-03   121.1141       3.704880    
  1.1080300E-03  1.1648400E-03   105.7543       4.656268    
  1.1648400E-03  1.1943300E-03   96.43613       6.975592    
  1.1943300E-03  1.2245600E-03   102.3044       6.535078    
  1.2245600E-03  1.2873500E-03   106.6621       4.071480    
  1.2873500E-03  1.3533500E-03   93.21589       3.641825    
  1.3533500E-03  1.4227401E-03   83.42152       5.237176    
  1.4227401E-03  1.4956900E-03   81.29409       5.534781    
  1.4956900E-03  1.5335500E-03   87.48773       5.206051    
  1.5335500E-03  1.5723699E-03   81.77219       10.09690    
  1.5723699E-03  1.6121800E-03   77.15205       6.604102    
  1.6121800E-03  1.6529900E-03   75.03108       7.571928    
  1.6529900E-03  1.7377400E-03   73.81054       4.291785    
  1.7377400E-03  1.8268300E-03   68.71007       3.912444    
  1.8268300E-03  1.8730800E-03   63.40586       5.868177    
  1.8730800E-03  1.9205000E-03   65.20346       7.622672    
  1.9205000E-03  1.9691200E-03   58.38239       7.251346    
  1.9691200E-03  2.0189700E-03   56.16932       6.855026    
  2.0189700E-03  2.1224800E-03   51.35428       3.392105    
  2.1224800E-03  2.2313001E-03   49.70511       3.745956    
  2.2313001E-03  2.2688799E-03   49.02559       4.832185    
  2.2688799E-03  2.3068599E-03   54.39682       7.193023    
  2.3068599E-03  2.3457000E-03   43.61464       9.411330    
  2.3457000E-03  2.3652499E-03   42.89511       12.80785    
  2.3652499E-03  2.3852000E-03   42.20298       15.47882    
  2.3852000E-03  2.4251300E-03   45.32310       9.547538    
  2.4251300E-03  2.4659701E-03   48.80762       8.602630    
  2.4659701E-03  2.5923999E-03   42.15792       5.048800    
  2.5923999E-03  2.7253199E-03   29.98100       5.646073    
  2.7253199E-03  2.8650500E-03   28.72658       5.581198    
  2.8650500E-03  3.0119400E-03   28.18553       4.886100    
  3.0119400E-03  3.0881900E-03   22.49973       8.417436    
  3.0881900E-03  3.1663701E-03   23.37875       10.57926    
  3.1663701E-03  3.2465300E-03   26.59720       6.881591    
  3.2465300E-03  3.3287101E-03   20.43635       8.427953    
  3.3287101E-03  3.4993801E-03   16.93385       5.912266    
  3.4993801E-03  3.6787901E-03   17.26732       5.033362    
  3.6787901E-03  3.8674099E-03   18.56324       5.265239    
  3.8674099E-03  4.0656999E-03   14.06013       5.860423    
  4.0656999E-03  4.2741499E-03   15.81098       6.496137    
  4.2741499E-03  4.4932901E-03   12.70956       8.325154    
  4.4932901E-03  4.6070400E-03   12.10236       8.808166    
  4.6070400E-03  4.7236700E-03   12.90081       8.267561    
  4.7236700E-03  4.8432499E-03   11.54278       9.181100    
  4.8432499E-03  4.9658502E-03   12.02919       7.313287    
  4.9658502E-03  5.2204598E-03   11.38477       7.895353    
  5.2204598E-03  5.4881200E-03   10.01645       9.001261    
  5.4881200E-03  5.7695000E-03   10.38945       6.138299    
  5.7695000E-03  5.9155500E-03   7.806086       8.798287    
  5.9155500E-03  6.0653100E-03   8.838735       9.470721    
  6.0653100E-03  6.2188501E-03   8.231969       6.925190    
  6.2188501E-03  6.3762800E-03   8.228827       10.37108    
  6.3762800E-03  6.5377001E-03   8.942531       10.05528    
  6.5377001E-03  6.5923799E-03   5.893056       16.78873    
  6.5923799E-03  6.6475999E-03   6.020397       15.10837    
  6.6475999E-03  6.7031998E-03   10.05741       22.92916    
  6.7031998E-03  6.8728901E-03   8.082258       14.05742    
  6.8728901E-03  7.0468802E-03   8.562020       11.10196    
  7.0468802E-03  7.2252699E-03   6.964808       10.71358    
  7.2252699E-03  7.4081798E-03   5.663865       9.347072    
  7.4081798E-03  7.5957198E-03   6.187028       15.37238    
  7.5957198E-03  7.7880099E-03   5.895102       12.02218    
  7.7880099E-03  7.9851598E-03   5.365848       12.91604    
  7.9851598E-03  8.1873098E-03   5.576156       10.96062    
  8.1873098E-03  8.3945701E-03   5.786026       10.08388    
  8.3945701E-03  8.6070802E-03   4.680036       12.13832    
  8.6070802E-03  8.8249696E-03   4.768716       11.11035    
  8.8249696E-03  9.0483697E-03   5.131664       12.30484    
  9.0483697E-03  9.2774397E-03   4.941231       8.453393    
  9.2774397E-03  9.5122904E-03   3.591913       13.80046    
  9.5122904E-03  9.7530996E-03   4.658811       10.04566    
  9.7530996E-03  9.9999998E-03   4.278031       17.53413    
  9.9999998E-03  1.0253200E-02   3.927015       13.61854    
  1.0253200E-02  1.0512700E-02   4.586330       11.83778    
  1.0512700E-02  1.0778800E-02   4.639347       10.50641    
  1.0778800E-02  1.1051700E-02   5.143346       14.70148    
  1.1051700E-02  1.1331500E-02   4.507438       15.97826    
  1.1331500E-02  1.1618300E-02   3.806757       16.46970    
  1.1618300E-02  1.1912500E-02   3.164058       13.30182    
  1.1912500E-02  1.2214000E-02   3.726738       11.80364    
  1.2214000E-02  1.2523200E-02   3.271777       15.31624    
  1.2523200E-02  1.2840200E-02   3.149051       12.34890    
  1.2840200E-02  1.3165300E-02   2.761066       11.32500    
  1.3165300E-02  1.3498600E-02   2.628283       12.91972    
  1.3498600E-02  1.3840300E-02   2.947088       17.71477    
  1.3840300E-02  1.4190700E-02   2.657343       7.900571    
  1.4190700E-02  1.4549900E-02   2.296150       14.13942    
  1.4549900E-02  1.4918300E-02   2.486680       9.721629    
  1.4918300E-02  1.5295900E-02   2.485621       13.26832    
  1.5295900E-02  1.5683100E-02   2.683549       13.22542    
  1.5683100E-02  1.6080100E-02   1.870219       14.96496    
  1.6080100E-02  1.6487200E-02   1.723145       13.97379    
  1.6487200E-02  1.6904600E-02   2.796111       12.46206    
  1.6904600E-02  1.7332500E-02   1.384356       12.87946    
  1.7332500E-02  1.7771300E-02   2.146779       14.12921    
  1.7771300E-02  1.8221200E-02   1.663140       9.678745    
  1.8221200E-02  1.8682500E-02   1.716606       15.13279    
  1.8682500E-02  1.9155400E-02   1.541789       15.28993    
  1.9155400E-02  1.9640300E-02   1.696537       13.84894    
  1.9640300E-02  2.0000000E-02   1.728084       13.93659    
