 # Detector n:            1   HeIIcoll  
 # N. of energy intervals         260
  1.0000100E-14  2.0000000E-13  2.9488329E+10   41.44324    
  2.0000000E-13  2.9297300E-13  3.8091293E+10   43.93265    
  2.9297300E-13  4.2916701E-13  1.0973376E+11   28.59072    
  4.2916701E-13  6.2867300E-13  1.1735873E+11   14.64805    
  6.2867300E-13  9.2092198E-13  2.0625067E+11   15.31055    
  9.2092198E-13  1.3490300E-12  3.0918879E+11   14.13557    
  1.3490300E-12  1.9761499E-12  3.3751158E+11   10.19345    
  1.9761499E-12  2.8947901E-12  5.6149731E+11   2.229372    
  2.8947901E-12  4.2404799E-12  6.1174756E+11   4.027264    
  4.2404799E-12  6.2117499E-12  6.8957536E+11   2.662249    
  6.2117499E-12  9.0993801E-12  7.0720383E+11   2.745481    
  9.0993801E-12  1.3329400E-11  6.4725870E+11   1.109234    
  1.3329400E-11  1.9525799E-11  5.0814321E+11  0.6806530    
  1.9525799E-11  2.8602700E-11  3.1480840E+11   2.338875    
  2.8602700E-11  4.1899099E-11  1.5045250E+11   2.011581    
  4.1899099E-11  6.1376598E-11  5.7914761E+10   2.572290    
  6.1376598E-11  8.9908601E-11  2.3279440E+10   4.952381    
  8.9908601E-11  1.3170399E-10  8.4289961E+09   4.719076    
  1.3170399E-10  1.9292901E-10  3.2455132E+09   4.511119    
  1.9292901E-10  2.8261499E-10  1.5446390E+09   4.210013    
  2.8261499E-10  4.1399401E-10  9.2054579E+08   3.372014    
  4.1399401E-10  5.3157900E-10  6.7857050E+08   2.721233    
  5.3157900E-10  6.2506200E-10  5.4205517E+08   1.965183    
  6.2506200E-10  6.8256001E-10  4.2275008E+08   1.978067    
  6.8256001E-10  8.3368101E-10  3.7400858E+08   2.809896    
  8.3368101E-10  8.7642499E-10  3.3331437E+08   6.293027    
  8.7642499E-10  1.1253500E-09  2.9402486E+08   2.379765    
  1.1253500E-09  1.4449800E-09  2.2597862E+08   5.086446    
  1.4449800E-09  1.8553900E-09  1.6348350E+08   2.899598    
  1.8553900E-09  2.3823701E-09  1.2964605E+08   5.367650    
  2.3823701E-09  3.0590199E-09  9.9885520E+07   3.423877    
  3.0590199E-09  3.9278598E-09  6.9836608E+07   2.143239    
  3.9278598E-09  5.0434799E-09  5.9159288E+07   1.655336    
  5.0434799E-09  6.4759500E-09  4.5393604E+07   1.103010    
  6.4759500E-09  8.3152898E-09  3.4670416E+07   1.759738    
  8.3152898E-09  1.0677000E-08  2.7329762E+07   4.903537    
  1.0677000E-08  1.3709600E-08  2.0753984E+07   2.525950    
  1.3709600E-08  1.7603501E-08  1.5534895E+07   2.368211    
  1.7603501E-08  2.2603301E-08  1.1427118E+07   4.667601    
  2.2603301E-08  2.9023200E-08   8714354.       1.974937    
  2.9023200E-08  3.7266499E-08   6803987.       3.443973    
  3.7266499E-08  4.7851199E-08   5398302.       2.823064    
  4.7851199E-08  6.1442101E-08   3895213.       2.462829    
  6.1442101E-08  7.8893301E-08   3045682.       2.937220    
  7.8893301E-08  1.0130100E-07   2190777.       1.897878    
  1.0130100E-07  1.3007300E-07   1664837.       5.578593    
  1.3007300E-07  1.6701701E-07   1273850.       3.857584    
  1.6701701E-07  2.1445400E-07   1014236.       2.117724    
  2.1445400E-07  2.7536399E-07   771515.6       2.681184    
  2.7536399E-07  3.5357499E-07   538173.6       6.641000    
  3.5357499E-07  4.5399901E-07   413564.3       5.551280    
  4.5399901E-07  5.8294700E-07   297643.0       6.150475    
  5.8294700E-07  7.4851800E-07   223774.4       4.835528    
  7.4851800E-07  9.6111603E-07   168678.0       6.682620    
  9.6111603E-07  1.2341000E-06   121617.8       5.230480    
  1.2341000E-06  1.3638900E-06   101457.9       6.615163    
  1.3638900E-06  1.5073300E-06   102057.8       9.613139    
  1.5073300E-06  1.5846100E-06   92450.57       8.546860    
  1.5846100E-06  1.6658601E-06   78450.37       5.780122    
  1.6658601E-06  1.8410600E-06   91555.55       11.07886    
  1.8410600E-06  2.0346799E-06   66928.53       7.404945    
  2.0346799E-06  2.2486699E-06   61213.09       1.023986    
  2.2486699E-06  2.4851699E-06   59830.54       6.391061    
  2.4851699E-06  2.6125899E-06   58274.31       16.19420    
  2.6125899E-06  2.7465401E-06   46543.23       12.89282    
  2.7465401E-06  2.8634900E-06   43126.83       19.11090    
  2.8634900E-06  3.0353899E-06   39121.60       7.978560    
  3.0353899E-06  3.3546301E-06   37084.88       10.68917    
  3.3546301E-06  3.7074401E-06   31770.10       2.700308    
  3.7074401E-06  4.0973500E-06   28927.26       5.306835    
  4.0973500E-06  4.3074201E-06   23344.88       4.948718    
  4.3074201E-06  4.5282700E-06   19033.45       17.84709    
  4.5282700E-06  5.0045101E-06   21184.20       9.001028    
  5.0045101E-06  5.5308401E-06   18369.96       9.050722    
  5.5308401E-06  6.2672698E-06   13700.31       3.000343    
  6.2672698E-06  7.1017398E-06   12846.88       9.080030    
  7.1017398E-06  8.0473301E-06   12893.97       4.739202    
  8.0473301E-06  9.1188203E-06   11183.34       8.667342    
  9.1188203E-06  1.0333000E-05   9581.027       10.05621    
  1.0333000E-05  1.1708800E-05   7488.014       5.135942    
  1.1708800E-05  1.3267800E-05   6293.755       4.517540    
  1.3267800E-05  1.5034400E-05   5832.095       7.316220    
  1.5034400E-05  1.7036200E-05   5287.260       4.760234    
  1.7036200E-05  1.9304500E-05   3801.088       5.992775    
  1.9304500E-05  2.1334799E-05   3659.876       8.508018    
  2.1334799E-05  2.1874899E-05   2466.009       10.07818    
  2.1874899E-05  2.3578599E-05   2756.675       15.67756    
  2.3578599E-05  2.4175501E-05   3053.304       20.35193    
  2.4175501E-05  2.4787500E-05   2977.930       25.51250    
  2.4787500E-05  2.6058400E-05   2867.998       5.439282    
  2.6058400E-05  2.8087899E-05   2313.989       11.26841    
  2.8087899E-05  3.1827800E-05   2605.000       10.19960    
  3.1827800E-05  3.4306700E-05   1979.107       4.948717    
  3.4306700E-05  3.5175199E-05   1210.432       50.33223    
  3.5175199E-05  3.6065601E-05   629.6773       40.82483    
  3.6065601E-05  4.0867701E-05   1079.918       6.801653    
  4.0867701E-05  4.6309200E-05   952.7100       2.702702    
  4.6309200E-05  5.2475199E-05   1044.770       9.050722    
  5.2475199E-05  5.6562199E-05   959.0276       20.20305    
  5.6562199E-05  5.9462200E-05   989.2542       8.330854    
  5.9462200E-05  6.2510902E-05   757.1440       23.40733    
  6.2510902E-05  6.7379500E-05   746.6381       12.56149    
  6.7379500E-05  7.6350902E-05   809.4988       8.158924    
  7.6350902E-05  8.6516899E-05   500.5951       17.52497    
  8.6516899E-05  9.8036500E-05   380.2941       11.98386    
  9.8036500E-05  1.1109000E-04   408.6730       12.96535    
  1.1109000E-04  1.1678600E-04   290.8067       36.00412    
  1.1678600E-04  1.2277300E-04   253.0215       17.40777    
  1.2277300E-04  1.2906799E-04   283.6968       13.32347    
  1.2906799E-04  1.3568600E-04   310.5638       28.02115    
  1.3568600E-04  1.4264201E-04   216.0956       28.26479    
  1.4264201E-04  1.4995600E-04   186.3058       24.49490    
  1.4995600E-04  1.5764400E-04   203.0069       17.92655    
  1.5764400E-04  1.6163501E-04   254.0272       22.77100    
  1.6163501E-04  1.6572700E-04   115.3049       48.79500    
  1.6572700E-04  1.6992200E-04   192.2761       13.60828    
  1.6992200E-04  1.7422400E-04   155.7997       47.60952    
  1.7422400E-04  1.8315599E-04   194.2426       14.72965    
  1.8315599E-04  1.9254700E-04   218.9391       19.26502    
  1.9254700E-04  2.0241900E-04   180.2289       14.02200    
  2.0241900E-04  2.1279699E-04   113.2487       19.24501    
  2.1279699E-04  2.2370800E-04   112.5003       28.98721    
  2.2370800E-04  2.3517800E-04   100.2714       14.34438    
  2.3517800E-04  2.4723500E-04   99.54082       10.07818    
  2.4723500E-04  2.5991100E-04   108.1532       11.73631    
  2.5991100E-04  2.7323700E-04   87.28897       15.78947    
  2.7323700E-04  2.8015400E-04   96.03203       40.31556    
  2.8015400E-04  2.8724599E-04   92.78983       54.29234    
  2.8724599E-04  2.9451799E-04   81.48894       47.60952    
  2.9451799E-04  3.0197401E-04   102.3145       7.692308    
  3.0197401E-04  3.0961799E-04   68.22511       21.27616    
  3.0961799E-04  3.1745600E-04   72.91389       25.81989    
  3.1745600E-04  3.3373301E-04   68.75768       14.14214    
  3.3373301E-04  3.5084400E-04   54.02893       26.08654    
  3.5084400E-04  3.6883200E-04   87.58386       13.87777    
  3.6883200E-04  3.8774201E-04   48.01989       23.12962    
  3.8774201E-04  4.0762199E-04   63.29345       23.91636    
  4.0762199E-04  4.2852099E-04   50.56790       17.92655    
  4.2852099E-04  4.5049199E-04   51.50390       14.72965    
  4.5049199E-04  4.7358900E-04   31.84839       26.44974    
  4.7358900E-04  4.9787102E-04   45.51214       3.448275    
  4.9787102E-04  5.1047403E-04   37.20441       19.35855    
  5.1047403E-04  5.2339700E-04   58.77871       24.05228    
  5.2339700E-04  5.3664698E-04   37.43905       22.77100    
  5.3664698E-04  5.5023201E-04   44.33684       26.31579    
  5.5023201E-04  5.7844300E-04   26.09212       26.43230    
  5.7844300E-04  6.0810102E-04   35.86383       20.41241    
  6.0810102E-04  6.3927902E-04   32.07272       19.24501    
  6.3927902E-04  6.7205500E-04   27.69276       7.943371    
  6.7205500E-04  7.0651202E-04   31.80614       14.21440    
  7.0651202E-04  7.4273598E-04   28.69986       10.20621    
  7.4273598E-04  7.8081700E-04   23.42072       10.48901    
  7.8081700E-04  8.2085002E-04   18.78427       13.21682    
  8.2085002E-04  8.6293602E-04   18.94821       22.55853    
  8.6293602E-04  9.0717903E-04   17.18474       11.90238    
  9.0717903E-04  9.5369201E-04   12.80301       8.571427    
  9.5369201E-04  9.6163998E-04   13.15808       34.11317    
  9.6163998E-04  9.7783399E-04   10.69601       26.24319    
  9.7783399E-04  1.0025901E-03   10.47231       15.56324    
  1.0025901E-03  1.0539900E-03   13.04327       11.63941    
  1.0539900E-03  1.1080300E-03   11.56960       10.75761    
  1.1080300E-03  1.1648400E-03   14.34225       10.57207    
  1.1648400E-03  1.1943300E-03   8.582428       9.072185    
  1.1943300E-03  1.2245600E-03   12.73344       16.42486    
  1.2245600E-03  1.2873500E-03   10.41270       2.151520    
  1.2873500E-03  1.3533500E-03   10.67392       11.26038    
  1.3533500E-03  1.4227401E-03   13.89688       9.707536    
  1.4227401E-03  1.4956900E-03   11.73586       8.139326    
  1.4956900E-03  1.5335500E-03   13.52499       9.563476    
  1.5335500E-03  1.5723699E-03   12.18045       9.050431    
  1.5723699E-03  1.6121800E-03   11.30410       14.22917    
  1.6121800E-03  1.6529900E-03   11.16964       21.95663    
  1.6529900E-03  1.7377400E-03   10.29976       22.07940    
  1.7377400E-03  1.8268300E-03   11.13227       12.05524    
  1.8268300E-03  1.8730800E-03   7.148818       12.65056    
  1.8730800E-03  1.9205000E-03   9.321943       23.03502    
  1.9205000E-03  1.9691200E-03   8.297585       21.95761    
  1.9691200E-03  2.0189700E-03   8.062060       11.54700    
  2.0189700E-03  2.1224800E-03   10.52198       4.909883    
  2.1224800E-03  2.2313001E-03   8.110811       9.813066    
  2.2313001E-03  2.2688799E-03   7.281612       14.34438    
  2.2688799E-03  2.3068599E-03   9.757775       11.78511    
  2.3068599E-03  2.3457000E-03   8.477266       28.43885    
  2.3457000E-03  2.3652499E-03   7.299922       27.96235    
  2.3652499E-03  2.3852000E-03   4.803851       19.24501    
  2.3852000E-03  2.4251300E-03   8.492004       18.02828    
  2.4251300E-03  2.4659701E-03   5.212635       49.25480    
  2.4659701E-03  2.5923999E-03   6.918698       10.87856    
  2.5923999E-03  2.7253199E-03   4.995106       17.45592    
  2.7253199E-03  2.8650500E-03   5.568080       14.39859    
  2.8650500E-03  3.0119400E-03   6.106218       17.01035    
  3.0119400E-03  3.0881900E-03   5.263669       19.63383    
  3.0881900E-03  3.1663701E-03   3.720168       16.77741    
  3.1663701E-03  3.2465300E-03   3.924255       20.41241    
  3.2465300E-03  3.3287101E-03   5.819153       26.35231    
  3.3287101E-03  3.4993801E-03   3.927823       20.62685    
  3.4993801E-03  3.6787901E-03   3.597435       6.176949    
  3.6787901E-03  3.8674099E-03   3.955610       17.06331    
  3.8674099E-03  4.0656999E-03   4.179907       19.45708    
  4.0656999E-03  4.2741499E-03   4.388003       16.11726    
  4.2741499E-03  4.4932901E-03   5.310294       21.32963    
  4.4932901E-03  4.6070400E-03   3.264708       33.85016    
  4.6070400E-03  4.7236700E-03   2.415589       19.24501    
  4.7236700E-03  4.8432499E-03   3.178094       22.82177    
  4.8432499E-03  4.9658502E-03   4.116680       27.35506    
  4.9658502E-03  5.2204598E-03   2.979534       22.58064    
  5.2204598E-03  5.4881200E-03   2.718085       14.21761    
  5.4881200E-03  5.7695000E-03   2.287196       15.14375    
  5.7695000E-03  5.9155500E-03   3.776433       9.118355    
  5.9155500E-03  6.0653100E-03   3.022586       17.64706    
  6.0653100E-03  6.2188501E-03   1.582753       21.27616    
  6.2188501E-03  6.3762800E-03   3.479798       18.25742    
  6.3762800E-03  6.5377001E-03   2.754906       22.82177    
  6.5377001E-03  6.5923799E-03   2.053358       40.82483    
  6.5923799E-03  6.6475999E-03   2.554272       50.33223    
  6.6475999E-03  6.7031998E-03   3.059598       33.33334    
  6.7031998E-03  6.8728901E-03   3.713243       21.64069    
  6.8728901E-03  7.0468802E-03   1.504610       27.96235    
  7.0468802E-03  7.2252699E-03   1.987764       36.00412    
  7.2252699E-03  7.4081798E-03   1.477466       42.06599    
  7.4081798E-03  7.5957198E-03   2.278468       18.44278    
  7.5957198E-03  7.7880099E-03   2.904952       14.34438    
  7.7880099E-03  7.9851598E-03   1.600989       20.00000    
  7.9851598E-03  8.1873098E-03   1.588452       25.81989    
  8.1873098E-03  8.3945701E-03   2.049598       14.72965    
  8.3945701E-03  8.6070802E-03   2.034854       14.72965    
  8.6070802E-03  8.8249696E-03  0.7772174       20.00000    
  8.8249696E-03  9.0483697E-03   1.389805       37.95167    
  9.0483697E-03  9.2774397E-03   2.761696       19.24501    
  9.2774397E-03  9.5122904E-03   1.982688       23.07692    
  9.5122904E-03  9.7530996E-03  0.9097199       79.34921    
  9.7530996E-03  9.9999998E-03   1.055454       35.95159    
  9.9999998E-03  1.0253200E-02   1.499568       38.29708    
  1.0253200E-02  1.0512700E-02   1.492796       25.81989    
  1.0512700E-02  1.0778800E-02   1.931337       14.72965    
  1.0778800E-02  1.1051700E-02   1.626502       17.40777    
  1.1051700E-02  1.1331500E-02   1.178056       40.82483    
  1.1331500E-02  1.1618300E-02   1.320492       33.33333    
  1.1618300E-02  1.1912500E-02   1.314958       49.27457    
  1.1912500E-02  1.2214000E-02   1.602590       34.41763    
  1.2214000E-02  1.2523200E-02   1.161540       35.35534    
  1.2523200E-02  1.2840200E-02   1.158188       20.41241    
  1.2840200E-02  1.3165300E-02   1.587916       31.05137    
  1.3165300E-02  1.3498600E-02   1.008053       35.95159    
  1.3498600E-02  1.3840300E-02  0.7184864       38.29708    
  1.3840300E-02  1.4190700E-02   1.003612       27.35506    
  1.4190700E-02  1.4549900E-02  0.8587174       19.24501    
  1.4549900E-02  1.4918300E-02  0.9998250       27.35506    
  1.4918300E-02  1.5295900E-02  0.2852880       57.73503    
  1.5295900E-02  1.5683100E-02  0.5696378       40.82483    
  1.5683100E-02  1.6080100E-02   1.990846       27.35506    
  1.6080100E-02  1.6487200E-02  0.5679369       57.73503    
  1.6487200E-02  1.6904600E-02  0.5671468       70.71068    
  1.6904600E-02  1.7332500E-02  0.8496377       43.03315    
  1.7332500E-02  1.7771300E-02  0.2827407       57.73503    
  1.7771300E-02  1.8221200E-02  0.9879880       35.95159    
  1.8221200E-02  1.8682500E-02  0.7044089       50.33223    
  1.8682500E-02  1.9155400E-02  0.8436952       19.24501    
  1.9155400E-02  1.9640300E-02  0.9819334       27.35506    
  1.9640300E-02  2.0000000E-02  0.9639192       38.29708    
