 # Detector n:  1  HeIInflux 
 # N. of energy intervals 260
  1.0000100E-14  2.0000000E-13  5.7922949E+10   19.05632    
  2.0000000E-13  2.9297300E-13  1.0399765E+11   19.58082    
  2.9297300E-13  4.2916701E-13  1.2799939E+11   12.92866    
  4.2916701E-13  6.2867300E-13  1.7202338E+11   6.556226    
  6.2867300E-13  9.2092198E-13  2.4985710E+11   4.611004    
  9.2092198E-13  1.3490300E-12  4.0422261E+11   3.401491    
  1.3490300E-12  1.9761499E-12  5.0742067E+11   3.045654    
  1.9761499E-12  2.8947901E-12  6.5047462E+11   2.306028    
  2.8947901E-12  4.2404799E-12  7.8371475E+11   1.415654    
  4.2404799E-12  6.2117499E-12  8.9289680E+11   1.742507    
  6.2117499E-12  9.0993801E-12  9.0639335E+11   1.302718    
  9.0993801E-12  1.3329400E-11  8.1385285E+11  0.9387101    
  1.3329400E-11  1.9525799E-11  6.2657108E+11   1.046572    
  1.9525799E-11  2.8602700E-11  3.7642437E+11  0.8757882    
  2.8602700E-11  4.1899099E-11  1.7664855E+11   1.189858    
  4.1899099E-11  6.1376598E-11  7.3156084E+10   1.284355    
  6.1376598E-11  8.9908601E-11  3.1989174E+10   1.284294    
  8.9908601E-11  1.3170399E-10  1.6050250E+10   1.303067    
  1.3170399E-10  1.9292901E-10  8.8649646E+09   1.108585    
  1.9292901E-10  2.8261499E-10  5.5716485E+09   1.084683    
  2.8261499E-10  4.1399401E-10  3.6733274E+09  0.9847981    
  4.1399401E-10  5.3157900E-10  2.7044511E+09  0.9843069    
  5.3157900E-10  6.2506200E-10  2.1623706E+09  0.7394854    
  6.2506200E-10  6.8256001E-10  1.9320884E+09   1.845920    
  6.8256001E-10  8.3368101E-10  1.6335548E+09  0.9891564    
  8.3368101E-10  8.7642499E-10  1.4418619E+09   1.712636    
  8.7642499E-10  1.1253500E-09  1.2331182E+09   1.168813    
  1.1253500E-09  1.4449800E-09  9.6059034E+08  0.9404467    
  1.4449800E-09  1.8553900E-09  7.5232525E+08  0.7610899    
  1.8553900E-09  2.3823701E-09  5.8130432E+08  0.8181450    
  2.3823701E-09  3.0590199E-09  4.5035712E+08  0.7671016    
  3.0590199E-09  3.9278598E-09  3.5241696E+08  0.6631260    
  3.9278598E-09  5.0434799E-09  2.7913520E+08  0.7721447    
  5.0434799E-09  6.4759500E-09  2.1607131E+08  0.7909619    
  6.4759500E-09  8.3152898E-09  1.6897960E+08  0.5982717    
  8.3152898E-09  1.0677000E-08  1.3179349E+08  0.9221081    
  1.0677000E-08  1.3709600E-08  1.0405107E+08  0.6246426    
  1.3709600E-08  1.7603501E-08  7.9730248E+07  0.4987103    
  1.7603501E-08  2.2603301E-08  6.2955988E+07  0.7655457    
  2.2603301E-08  2.9023200E-08  4.8474224E+07   1.004553    
  2.9023200E-08  3.7266499E-08  3.8149488E+07   1.031170    
  3.7266499E-08  4.7851199E-08  2.9513106E+07  0.6473947    
  4.7851199E-08  6.1442101E-08  2.3215500E+07  0.7748684    
  6.1442101E-08  7.8893301E-08  1.8074344E+07   1.040578    
  7.8893301E-08  1.0130100E-07  1.4000042E+07  0.4974163    
  1.0130100E-07  1.3007300E-07  1.0834681E+07  0.7989005    
  1.3007300E-07  1.6701701E-07   8438324.      0.8449244    
  1.6701701E-07  2.1445400E-07   6696042.      0.7765719    
  2.1445400E-07  2.7536399E-07   5105634.      0.7209867    
  2.7536399E-07  3.5357499E-07   3970908.      0.7972521    
  3.5357499E-07  4.5399901E-07   3041422.      0.5302820    
  4.5399901E-07  5.8294700E-07   2348925.      0.7662033    
  5.8294700E-07  7.4851800E-07   1823584.      0.5938699    
  7.4851800E-07  9.6111603E-07   1396431.      0.7887658    
  9.6111603E-07  1.2341000E-06   1071943.      0.6973014    
  1.2341000E-06  1.3638900E-06   915242.4       1.142358    
  1.3638900E-06  1.5073300E-06   795232.6       1.230592    
  1.5073300E-06  1.5846100E-06   742888.6       2.400526    
  1.5846100E-06  1.6658601E-06   717900.2       1.643470    
  1.6658601E-06  1.8410600E-06   668764.9      0.9118491    
  1.8410600E-06  2.0346799E-06   570407.4       1.296400    
  2.0346799E-06  2.2486699E-06   520048.6       1.756331    
  2.2486699E-06  2.4851699E-06   476814.9       1.153638    
  2.4851699E-06  2.6125899E-06   440781.5       1.707380    
  2.6125899E-06  2.7465401E-06   428045.1       1.524901    
  2.7465401E-06  2.8634900E-06   382385.1       1.311357    
  2.8634900E-06  3.0353899E-06   374209.2      0.9654877    
  3.0353899E-06  3.3546301E-06   342098.8       1.518109    
  3.3546301E-06  3.7074401E-06   313287.8       1.106470    
  3.7074401E-06  4.0973500E-06   282005.5       1.215275    
  4.0973500E-06  4.3074201E-06   265348.5       1.553419    
  4.3074201E-06  4.5282700E-06   248936.1       2.088426    
  4.5282700E-06  5.0045101E-06   228856.0       1.091158    
  5.0045101E-06  5.5308401E-06   218598.0       1.506215    
  5.5308401E-06  6.2672698E-06   157512.0       1.587177    
  6.2672698E-06  7.1017398E-06   156325.2       1.290598    
  7.1017398E-06  8.0473301E-06   137156.6       1.088755    
  8.0473301E-06  9.1188203E-06   122632.7       1.077028    
  9.1188203E-06  1.0333000E-05   104043.7       1.309340    
  1.0333000E-05  1.1708800E-05   89086.19      0.7306420    
  1.1708800E-05  1.3267800E-05   77925.98       1.473600    
  1.3267800E-05  1.5034400E-05   67356.66       1.080944    
  1.5034400E-05  1.7036200E-05   58670.43       1.250750    
  1.7036200E-05  1.9304500E-05   51930.05       1.215510    
  1.9304500E-05  2.1334799E-05   46439.06       1.739026    
  2.1334799E-05  2.1874899E-05   39550.56       3.188325    
  2.1874899E-05  2.3578599E-05   39479.96       1.509861    
  2.3578599E-05  2.4175501E-05   37370.04       4.194324    
  2.4175501E-05  2.4787500E-05   37295.67       3.521954    
  2.4787500E-05  2.6058400E-05   35756.93       1.763705    
  2.6058400E-05  2.8087899E-05   33538.79       1.528170    
  2.8087899E-05  3.1827800E-05   35648.37       1.391908    
  3.1827800E-05  3.4306700E-05   25165.48       1.231093    
  3.4306700E-05  3.5175199E-05   12937.89       2.391622    
  3.5175199E-05  3.6065601E-05   11724.28       4.416331    
  3.6065601E-05  4.0867701E-05   15549.30       1.354502    
  4.0867701E-05  4.6309200E-05   17222.59       1.335530    
  4.6309200E-05  5.2475199E-05   15637.60       1.017726    
  5.2475199E-05  5.6562199E-05   13549.58       2.255025    
  5.6562199E-05  5.9462200E-05   13169.71       2.031377    
  5.9462200E-05  6.2510902E-05   11893.66       1.857811    
  6.2510902E-05  6.7379500E-05   11238.86       2.205546    
  6.7379500E-05  7.6350902E-05   11280.95       1.208370    
  7.6350902E-05  8.6516899E-05   8508.984       1.480708    
  8.6516899E-05  9.8036500E-05   5099.073       2.097489    
  9.8036500E-05  1.1109000E-04   5814.971       1.282538    
  1.1109000E-04  1.1678600E-04   5635.804       2.383620    
  1.1678600E-04  1.2277300E-04   4116.960       2.460886    
  1.2277300E-04  1.2906799E-04   5627.401       2.239219    
  1.2906799E-04  1.3568600E-04   5663.882       2.508808    
  1.3568600E-04  1.4264201E-04   4197.812       2.162806    
  1.4264201E-04  1.4995600E-04   3232.563       2.454337    
  1.4995600E-04  1.5764400E-04   3118.948       1.891488    
  1.5764400E-04  1.6163501E-04   2450.515       4.417120    
  1.6163501E-04  1.6572700E-04   2868.159       3.542987    
  1.6572700E-04  1.6992200E-04   3056.609       3.788207    
  1.6992200E-04  1.7422400E-04   3197.007       2.818198    
  1.7422400E-04  1.8315599E-04   3129.333       3.090066    
  1.8315599E-04  1.9254700E-04   2890.480       2.086617    
  1.9254700E-04  2.0241900E-04   2752.360       3.825982    
  2.0241900E-04  2.1279699E-04   2149.285       2.314281    
  2.1279699E-04  2.2370800E-04   2202.097       2.421829    
  2.2370800E-04  2.3517800E-04   2077.825       2.020243    
  2.3517800E-04  2.4723500E-04   2168.534       2.858369    
  2.4723500E-04  2.5991100E-04   2097.940       2.985644    
  2.5991100E-04  2.7323700E-04   2038.359       2.528215    
  2.7323700E-04  2.8015400E-04   1875.011       4.177269    
  2.8015400E-04  2.8724599E-04   1566.942       4.588812    
  2.8724599E-04  2.9451799E-04   1398.927       4.097430    
  2.9451799E-04  3.0197401E-04   1494.693       3.666601    
  3.0197401E-04  3.0961799E-04   1430.057       3.662013    
  3.0961799E-04  3.1745600E-04   1440.857       3.015381    
  3.1745600E-04  3.3373301E-04   1391.992       3.207773    
  3.3373301E-04  3.5084400E-04   1418.944       2.812221    
  3.5084400E-04  3.6883200E-04   1186.208       2.958446    
  3.6883200E-04  3.8774201E-04   1130.576       2.867577    
  3.8774201E-04  4.0762199E-04   1089.112       1.814870    
  4.0762199E-04  4.2852099E-04   856.1290       2.483783    
  4.2852099E-04  4.5049199E-04   830.4805       3.049230    
  4.5049199E-04  4.7358900E-04   809.9900       3.239388    
  4.7358900E-04  4.9787102E-04   737.5412       2.382003    
  4.9787102E-04  5.1047403E-04   786.3509       2.957518    
  5.1047403E-04  5.2339700E-04   716.4466       3.946444    
  5.2339700E-04  5.3664698E-04   618.9982       3.672567    
  5.3664698E-04  5.5023201E-04   607.1568       4.561133    
  5.5023201E-04  5.7844300E-04   578.4358       2.844895    
  5.7844300E-04  6.0810102E-04   538.8746       3.161150    
  6.0810102E-04  6.3927902E-04   473.7101       3.401282    
  6.3927902E-04  6.7205500E-04   411.9656       3.313877    
  6.7205500E-04  7.0651202E-04   418.9237       4.089880    
  7.0651202E-04  7.4273598E-04   364.2185       3.138823    
  7.4273598E-04  7.8081700E-04   318.0244       4.223050    
  7.8081700E-04  8.2085002E-04   248.5525       3.497547    
  8.2085002E-04  8.6293602E-04   211.6543       3.588214    
  8.6293602E-04  9.0717903E-04   203.7377       3.989754    
  9.0717903E-04  9.5369201E-04   184.2402       3.813154    
  9.5369201E-04  9.6163998E-04   165.6163       7.306397    
  9.6163998E-04  9.7783399E-04   166.9322       5.665327    
  9.7783399E-04  1.0025901E-03   158.4186       3.764539    
  1.0025901E-03  1.0539900E-03   148.8558       3.783929    
  1.0539900E-03  1.1080300E-03   148.0031       4.552485    
  1.1080300E-03  1.1648400E-03   133.0446       3.229406    
  1.1648400E-03  1.1943300E-03   131.8594       4.163801    
  1.1943300E-03  1.2245600E-03   123.0720       5.411282    
  1.2245600E-03  1.2873500E-03   115.5015       3.395188    
  1.2873500E-03  1.3533500E-03   106.6677       3.239282    
  1.3533500E-03  1.4227401E-03   106.7179       3.619181    
  1.4227401E-03  1.4956900E-03   100.9805       3.678445    
  1.4956900E-03  1.5335500E-03   101.5527       5.059570    
  1.5335500E-03  1.5723699E-03   95.58356       4.206218    
  1.5723699E-03  1.6121800E-03   98.52455       6.017473    
  1.6121800E-03  1.6529900E-03   101.9665       6.797053    
  1.6529900E-03  1.7377400E-03   86.74432       4.840492    
  1.7377400E-03  1.8268300E-03   85.69311       4.493423    
  1.8268300E-03  1.8730800E-03   84.29215       4.978956    
  1.8730800E-03  1.9205000E-03   89.28512       5.194413    
  1.9205000E-03  1.9691200E-03   64.83290       5.341421    
  1.9691200E-03  2.0189700E-03   75.73177       5.846403    
  2.0189700E-03  2.1224800E-03   65.67137       3.681111    
  2.1224800E-03  2.2313001E-03   61.36742       5.054893    
  2.2313001E-03  2.2688799E-03   58.60624       9.334989    
  2.2688799E-03  2.3068599E-03   50.02928       6.631471    
  2.3068599E-03  2.3457000E-03   54.67291       10.61664    
  2.3457000E-03  2.3652499E-03   60.38576       12.76536    
  2.3652499E-03  2.3852000E-03   52.26182       10.65716    
  2.3852000E-03  2.4251300E-03   53.52332       6.291546    
  2.4251300E-03  2.4659701E-03   57.38716       8.897748    
  2.4659701E-03  2.5923999E-03   45.49364       5.850968    
  2.5923999E-03  2.7253199E-03   39.40719       5.178137    
  2.7253199E-03  2.8650500E-03   37.91327       5.119883    
  2.8650500E-03  3.0119400E-03   34.51628       6.955117    
  3.0119400E-03  3.0881900E-03   30.60948       7.073522    
  3.0881900E-03  3.1663701E-03   29.23178       7.944142    
  3.1663701E-03  3.2465300E-03   27.92153       7.759807    
  3.2465300E-03  3.3287101E-03   29.52409       6.813906    
  3.3287101E-03  3.4993801E-03   25.33583       5.892980    
  3.4993801E-03  3.6787901E-03   24.66308       5.915771    
  3.6787901E-03  3.8674099E-03   23.29706       6.869901    
  3.8674099E-03  4.0656999E-03   19.82868       5.003110    
  4.0656999E-03  4.2741499E-03   18.80092       5.895476    
  4.2741499E-03  4.4932901E-03   18.03254       4.159738    
  4.4932901E-03  4.6070400E-03   15.07833       8.747372    
  4.6070400E-03  4.7236700E-03   14.27582       8.149248    
  4.7236700E-03  4.8432499E-03   16.76089       7.190359    
  4.8432499E-03  4.9658502E-03   14.09669       6.348949    
  4.9658502E-03  5.2204598E-03   14.77500       4.658241    
  5.2204598E-03  5.4881200E-03   14.53384       5.023022    
  5.4881200E-03  5.7695000E-03   10.29038       6.409007    
  5.7695000E-03  5.9155500E-03   10.73328       10.58980    
  5.9155500E-03  6.0653100E-03   10.98725       8.966407    
  6.0653100E-03  6.2188501E-03   12.26977       4.397221    
  6.2188501E-03  6.3762800E-03   10.12009       11.39701    
  6.3762800E-03  6.5377001E-03   10.47857       10.77521    
  6.5377001E-03  6.5923799E-03   6.846241       13.86461    
  6.5923799E-03  6.6475999E-03   7.957957       22.53596    
  6.6475999E-03  6.7031998E-03   9.829821       14.06587    
  6.7031998E-03  6.8728901E-03   9.528198       9.401805    
  6.8728901E-03  7.0468802E-03   8.700342       10.12766    
  7.0468802E-03  7.2252699E-03   7.755285       11.53362    
  7.2252699E-03  7.4081798E-03   8.670458       6.914409    
  7.4081798E-03  7.5957198E-03   9.372918       9.366985    
  7.5957198E-03  7.7880099E-03   7.400529       7.801978    
  7.7880099E-03  7.9851598E-03   7.908115       9.115910    
  7.9851598E-03  8.1873098E-03   6.524791       10.74932    
  8.1873098E-03  8.3945701E-03   7.087270       8.119894    
  8.3945701E-03  8.6070802E-03   7.368841       12.08439    
  8.6070802E-03  8.8249696E-03   6.449279       9.023805    
  8.8249696E-03  9.0483697E-03   6.064238       9.098664    
  9.0483697E-03  9.2774397E-03   5.661050       13.73717    
  9.2774397E-03  9.5122904E-03   5.110305       8.146251    
  9.5122904E-03  9.7530996E-03   5.027880       7.682943    
  9.7530996E-03  9.9999998E-03   5.485382       12.77754    
  9.9999998E-03  1.0253200E-02   5.043685       10.19403    
  1.0253200E-02  1.0512700E-02   5.291934       11.35604    
  1.0512700E-02  1.0778800E-02   5.018588       14.38312    
  1.0778800E-02  1.1051700E-02   5.085727       9.580743    
  1.1051700E-02  1.1331500E-02   5.563443       13.91557    
  1.1331500E-02  1.1618300E-02   5.689422       8.663008    
  1.1618300E-02  1.1912500E-02   4.986905       9.799678    
  1.1912500E-02  1.2214000E-02   3.833470       10.94194    
  1.2214000E-02  1.2523200E-02   3.396577       15.04005    
  1.2523200E-02  1.2840200E-02   3.301695       14.45312    
  1.2840200E-02  1.3165300E-02   3.793992       9.316201    
  1.3165300E-02  1.3498600E-02   3.886299       8.853802    
  1.3498600E-02  1.3840300E-02   3.481868       14.12630    
  1.3840300E-02  1.4190700E-02   3.723185       9.040281    
  1.4190700E-02  1.4549900E-02   2.895738       10.98134    
  1.4549900E-02  1.4918300E-02   3.119372       12.15781    
  1.4918300E-02  1.5295900E-02   3.518780       11.61837    
  1.5295900E-02  1.5683100E-02   3.285862       13.33545    
  1.5683100E-02  1.6080100E-02   2.605612       13.05224    
  1.6080100E-02  1.6487200E-02   2.391444       12.50658    
  1.6487200E-02  1.6904600E-02   2.508680       9.581469    
  1.6904600E-02  1.7332500E-02   3.047565       10.54194    
  1.7332500E-02  1.7771300E-02   2.253802       10.62453    
  1.7771300E-02  1.8221200E-02   2.191592       14.89927    
  1.8221200E-02  1.8682500E-02   2.003622       10.85794    
  1.8682500E-02  1.9155400E-02   2.018528       15.61439    
  1.9155400E-02  1.9640300E-02   2.455040       13.45660    
  1.9640300E-02  2.0000000E-02   2.293079       13.06466    
