 # Detector n:  1  HeIInflux 
 # N. of energy intervals 260
  1.0000100E-14  2.0000000E-13  6.0340195E+10   12.01888    
  2.0000000E-13  2.9297300E-13  1.6255002E+11   16.47481    
  2.9297300E-13  4.2916701E-13  2.4608365E+11   8.487278    
  4.2916701E-13  6.2867300E-13  3.2196539E+11   8.033118    
  6.2867300E-13  9.2092198E-13  4.9955294E+11   4.309223    
  9.2092198E-13  1.3490300E-12  6.2326578E+11   3.224101    
  1.3490300E-12  1.9761499E-12  8.6630564E+11   2.119634    
  1.9761499E-12  2.8947901E-12  1.0643489E+12   2.153802    
  2.8947901E-12  4.2404799E-12  1.3163480E+12   1.557487    
  4.2404799E-12  6.2117499E-12  1.4674155E+12   1.257672    
  6.2117499E-12  9.0993801E-12  1.4972849E+12  0.7379973    
  9.0993801E-12  1.3329400E-11  1.3278915E+12  0.9406473    
  1.3329400E-11  1.9525799E-11  1.0040769E+12  0.9849699    
  1.9525799E-11  2.8602700E-11  6.0418110E+11  0.6961293    
  2.8602700E-11  4.1899099E-11  2.7609475E+11  0.8879384    
  4.1899099E-11  6.1376598E-11  1.1142278E+11   1.278580    
  6.1376598E-11  8.9908601E-11  4.7012155E+10   1.566624    
  8.9908601E-11  1.3170399E-10  2.2624754E+10   1.391574    
  1.3170399E-10  1.9292901E-10  1.2527405E+10  0.9390701    
  1.9292901E-10  2.8261499E-10  7.7779589E+09  0.6860691    
  2.8261499E-10  4.1399401E-10  5.0471153E+09  0.7872934    
  4.1399401E-10  5.3157900E-10  3.6740306E+09  0.8859840    
  5.3157900E-10  6.2506200E-10  2.9104776E+09   1.357693    
  6.2506200E-10  6.8256001E-10  2.5726648E+09   1.221092    
  6.8256001E-10  8.3368101E-10  2.2550185E+09  0.9799070    
  8.3368101E-10  8.7642499E-10  1.9954235E+09   2.029346    
  8.7642499E-10  1.1253500E-09  1.6716020E+09  0.9415904    
  1.1253500E-09  1.4449800E-09  1.3142473E+09  0.4630787    
  1.4449800E-09  1.8553900E-09  1.0129223E+09  0.8803765    
  1.8553900E-09  2.3823701E-09  7.8884614E+08  0.7131305    
  2.3823701E-09  3.0590199E-09  6.1685600E+08   1.086732    
  3.0590199E-09  3.9278598E-09  4.7683059E+08  0.5730223    
  3.9278598E-09  5.0434799E-09  3.7025078E+08  0.4920918    
  5.0434799E-09  6.4759500E-09  2.9136070E+08  0.6170456    
  6.4759500E-09  8.3152898E-09  2.2575947E+08  0.8166546    
  8.3152898E-09  1.0677000E-08  1.7327371E+08  0.7459053    
  1.0677000E-08  1.3709600E-08  1.3703819E+08  0.6104106    
  1.3709600E-08  1.7603501E-08  1.0532947E+08  0.6488453    
  1.7603501E-08  2.2603301E-08  8.3573536E+07  0.8201399    
  2.2603301E-08  2.9023200E-08  6.4451436E+07  0.7179007    
  2.9023200E-08  3.7266499E-08  4.9703292E+07  0.6187717    
  3.7266499E-08  4.7851199E-08  3.8702808E+07  0.6940547    
  4.7851199E-08  6.1442101E-08  3.0203744E+07  0.7790300    
  6.1442101E-08  7.8893301E-08  2.3677106E+07  0.7713965    
  7.8893301E-08  1.0130100E-07  1.8028112E+07  0.7985303    
  1.0130100E-07  1.3007300E-07  1.3999320E+07  0.5631438    
  1.3007300E-07  1.6701701E-07  1.0862494E+07  0.8258619    
  1.6701701E-07  2.1445400E-07   8481352.      0.6028070    
  2.1445400E-07  2.7536399E-07   6510688.      0.9615421    
  2.7536399E-07  3.5357499E-07   5017230.      0.6616018    
  3.5357499E-07  4.5399901E-07   3846314.      0.6627803    
  4.5399901E-07  5.8294700E-07   2995367.      0.5709025    
  5.8294700E-07  7.4851800E-07   2296250.      0.8459992    
  7.4851800E-07  9.6111603E-07   1754913.      0.6996161    
  9.6111603E-07  1.2341000E-06   1357130.       1.079493    
  1.2341000E-06  1.3638900E-06   1128648.       1.315717    
  1.3638900E-06  1.5073300E-06   999227.8       1.252612    
  1.5073300E-06  1.5846100E-06   947616.9       1.861132    
  1.5846100E-06  1.6658601E-06   879556.3       1.179582    
  1.6658601E-06  1.8410600E-06   821876.4       1.235781    
  1.8410600E-06  2.0346799E-06   733120.4       1.296079    
  2.0346799E-06  2.2486699E-06   675119.8       1.661571    
  2.2486699E-06  2.4851699E-06   593804.6       1.240785    
  2.4851699E-06  2.6125899E-06   559932.2       2.521334    
  2.6125899E-06  2.7465401E-06   517577.6       1.699857    
  2.7465401E-06  2.8634900E-06   488389.6       2.269000    
  2.8634900E-06  3.0353899E-06   467916.7       2.138727    
  3.0353899E-06  3.3546301E-06   435542.0      0.8683441    
  3.3546301E-06  3.7074401E-06   379082.6       1.473891    
  3.7074401E-06  4.0973500E-06   340220.2       1.061136    
  4.0973500E-06  4.3074201E-06   316304.2       1.644686    
  4.3074201E-06  4.5282700E-06   309992.6       1.672420    
  4.5282700E-06  5.0045101E-06   276339.4       1.065421    
  5.0045101E-06  5.5308401E-06   273986.5       1.052971    
  5.5308401E-06  6.2672698E-06   199903.2       1.379435    
  6.2672698E-06  7.1017398E-06   190068.1       1.366921    
  7.1017398E-06  8.0473301E-06   165722.4       1.365184    
  8.0473301E-06  9.1188203E-06   147126.7      0.8284878    
  9.1188203E-06  1.0333000E-05   126641.4       1.223908    
  1.0333000E-05  1.1708800E-05   111902.8       1.177909    
  1.1708800E-05  1.3267800E-05   95234.73       1.004915    
  1.3267800E-05  1.5034400E-05   80280.98       1.127990    
  1.5034400E-05  1.7036200E-05   72496.33       1.208455    
  1.7036200E-05  1.9304500E-05   60512.62       1.733960    
  1.9304500E-05  2.1334799E-05   54014.83       1.257285    
  2.1334799E-05  2.1874899E-05   52465.53       2.229208    
  2.1874899E-05  2.3578599E-05   45595.04       2.225525    
  2.3578599E-05  2.4175501E-05   45906.66       3.143569    
  2.4175501E-05  2.4787500E-05   42907.60       2.103704    
  2.4787500E-05  2.6058400E-05   41643.14       2.278326    
  2.6058400E-05  2.8087899E-05   39944.71       1.573524    
  2.8087899E-05  3.1827800E-05   42019.43       1.219324    
  3.1827800E-05  3.4306700E-05   27739.21       1.537924    
  3.4306700E-05  3.5175199E-05   16090.87       3.054495    
  3.5175199E-05  3.6065601E-05   14777.17       4.574586    
  3.6065601E-05  4.0867701E-05   17980.98       1.505008    
  4.0867701E-05  4.6309200E-05   19917.33       1.758278    
  4.6309200E-05  5.2475199E-05   18142.75       1.220474    
  5.2475199E-05  5.6562199E-05   16014.69       1.899037    
  5.6562199E-05  5.9462200E-05   15495.20       2.398245    
  5.9462200E-05  6.2510902E-05   13952.60       2.093352    
  6.2510902E-05  6.7379500E-05   13378.99       1.833463    
  6.7379500E-05  7.6350902E-05   13057.80       1.192244    
  7.6350902E-05  8.6516899E-05   9615.898       1.158191    
  8.6516899E-05  9.8036500E-05   5895.809       1.178547    
  9.8036500E-05  1.1109000E-04   6810.410       1.467281    
  1.1109000E-04  1.1678600E-04   6669.207       2.717601    
  1.1678600E-04  1.2277300E-04   4650.636       2.949463    
  1.2277300E-04  1.2906799E-04   6505.604       2.923496    
  1.2906799E-04  1.3568600E-04   6489.541       2.396051    
  1.3568600E-04  1.4264201E-04   4819.629       2.236583    
  1.4264201E-04  1.4995600E-04   3829.325       2.623352    
  1.4995600E-04  1.5764400E-04   3379.709       3.971993    
  1.5764400E-04  1.6163501E-04   2711.312       3.664994    
  1.6163501E-04  1.6572700E-04   2889.953       4.897288    
  1.6572700E-04  1.6992200E-04   3484.748       4.666698    
  1.6992200E-04  1.7422400E-04   3592.385       3.950761    
  1.7422400E-04  1.8315599E-04   3568.871       2.166513    
  1.8315599E-04  1.9254700E-04   3429.523       2.526967    
  1.9254700E-04  2.0241900E-04   3101.813       3.578725    
  2.0241900E-04  2.1279699E-04   2413.732       3.229594    
  2.1279699E-04  2.2370800E-04   2347.679       2.297289    
  2.2370800E-04  2.3517800E-04   2392.613       2.297351    
  2.3517800E-04  2.4723500E-04   2402.620       1.831055    
  2.4723500E-04  2.5991100E-04   2275.068       3.114437    
  2.5991100E-04  2.7323700E-04   2498.199       2.351032    
  2.7323700E-04  2.8015400E-04   2187.143       4.012753    
  2.8015400E-04  2.8724599E-04   1731.670       4.101809    
  2.8724599E-04  2.9451799E-04   1698.522       4.084583    
  2.9451799E-04  3.0197401E-04   1741.927       4.354268    
  3.0197401E-04  3.0961799E-04   1681.171       4.165368    
  3.0961799E-04  3.1745600E-04   1613.605       4.051000    
  3.1745600E-04  3.3373301E-04   1516.306       2.914167    
  3.3373301E-04  3.5084400E-04   1516.881       2.962093    
  3.5084400E-04  3.6883200E-04   1314.784       2.622911    
  3.6883200E-04  3.8774201E-04   1249.082       3.304200    
  3.8774201E-04  4.0762199E-04   1190.838       2.993355    
  4.0762199E-04  4.2852099E-04   974.1636       2.888255    
  4.2852099E-04  4.5049199E-04   887.2524       2.499296    
  4.5049199E-04  4.7358900E-04   830.3864       3.703762    
  4.7358900E-04  4.9787102E-04   825.9166       3.792573    
  4.9787102E-04  5.1047403E-04   813.1989       4.618619    
  5.1047403E-04  5.2339700E-04   750.0381       3.267257    
  5.2339700E-04  5.3664698E-04   614.9897       4.476334    
  5.3664698E-04  5.5023201E-04   640.7980       4.865128    
  5.5023201E-04  5.7844300E-04   659.3674       4.219611    
  5.7844300E-04  6.0810102E-04   586.6425       1.959056    
  6.0810102E-04  6.3927902E-04   491.3962       2.662350    
  6.3927902E-04  6.7205500E-04   418.5233       3.595276    
  6.7205500E-04  7.0651202E-04   426.6474       3.633920    
  7.0651202E-04  7.4273598E-04   361.4541       3.477468    
  7.4273598E-04  7.8081700E-04   311.3326       2.358063    
  7.8081700E-04  8.2085002E-04   266.4104       4.217018    
  8.2085002E-04  8.6293602E-04   218.9425       3.698817    
  8.6293602E-04  9.0717903E-04   210.4060       4.371153    
  9.0717903E-04  9.5369201E-04   183.3110       4.047139    
  9.5369201E-04  9.6163998E-04   180.4767       10.88616    
  9.6163998E-04  9.7783399E-04   163.3425       6.639741    
  9.7783399E-04  1.0025901E-03   164.5992       5.533725    
  1.0025901E-03  1.0539900E-03   156.0170       3.756376    
  1.0539900E-03  1.1080300E-03   147.7226       3.248632    
  1.1080300E-03  1.1648400E-03   135.6902       2.921504    
  1.1648400E-03  1.1943300E-03   121.4102       4.745216    
  1.1943300E-03  1.2245600E-03   136.6203       5.466610    
  1.2245600E-03  1.2873500E-03   125.5865       3.390983    
  1.2873500E-03  1.3533500E-03   108.6768       3.416892    
  1.3533500E-03  1.4227401E-03   111.9019       3.393609    
  1.4227401E-03  1.4956900E-03   104.9786       4.151802    
  1.4956900E-03  1.5335500E-03   98.44817       6.794136    
  1.5335500E-03  1.5723699E-03   110.8770       4.808260    
  1.5723699E-03  1.6121800E-03   91.89715       3.931241    
  1.6121800E-03  1.6529900E-03   95.45684       5.096669    
  1.6529900E-03  1.7377400E-03   90.04625       4.570584    
  1.7377400E-03  1.8268300E-03   85.63769       4.040511    
  1.8268300E-03  1.8730800E-03   87.29456       3.855676    
  1.8730800E-03  1.9205000E-03   78.95588       6.072840    
  1.9205000E-03  1.9691200E-03   72.88210       5.885662    
  1.9691200E-03  2.0189700E-03   79.96524       5.975404    
  2.0189700E-03  2.1224800E-03   67.25711       5.469315    
  2.1224800E-03  2.2313001E-03   63.20062       3.113392    
  2.2313001E-03  2.2688799E-03   61.32642       8.397071    
  2.2688799E-03  2.3068599E-03   62.31353       6.474359    
  2.3068599E-03  2.3457000E-03   56.91369       9.331667    
  2.3457000E-03  2.3652499E-03   61.21227       11.34074    
  2.3652499E-03  2.3852000E-03   60.26262       11.05109    
  2.3852000E-03  2.4251300E-03   48.48076       8.742826    
  2.4251300E-03  2.4659701E-03   53.92789       9.945875    
  2.4659701E-03  2.5923999E-03   50.75043       5.153890    
  2.5923999E-03  2.7253199E-03   45.12627       5.720286    
  2.7253199E-03  2.8650500E-03   43.60551       4.714222    
  2.8650500E-03  3.0119400E-03   35.58229       6.512112    
  3.0119400E-03  3.0881900E-03   33.06986       8.005834    
  3.0881900E-03  3.1663701E-03   31.82394       5.624980    
  3.1663701E-03  3.2465300E-03   32.79875       9.681141    
  3.2465300E-03  3.3287101E-03   27.75117       10.43010    
  3.3287101E-03  3.4993801E-03   26.65755       6.597228    
  3.4993801E-03  3.6787901E-03   26.60037       7.879389    
  3.6787901E-03  3.8674099E-03   22.55257       6.443365    
  3.8674099E-03  4.0656999E-03   20.55444       6.667989    
  4.0656999E-03  4.2741499E-03   18.84186       5.566884    
  4.2741499E-03  4.4932901E-03   18.74226       5.199910    
  4.4932901E-03  4.6070400E-03   15.59433       9.782035    
  4.6070400E-03  4.7236700E-03   21.18890       6.883146    
  4.7236700E-03  4.8432499E-03   14.76473       7.514753    
  4.8432499E-03  4.9658502E-03   18.85839       9.541723    
  4.9658502E-03  5.2204598E-03   15.08092       6.975214    
  5.2204598E-03  5.4881200E-03   14.29174       6.557332    
  5.4881200E-03  5.7695000E-03   17.23357       7.923448    
  5.7695000E-03  5.9155500E-03   11.71300       10.69859    
  5.9155500E-03  6.0653100E-03   14.34123       11.32970    
  6.0653100E-03  6.2188501E-03   11.10712       10.59446    
  6.2188501E-03  6.3762800E-03   8.879661       11.38240    
  6.3762800E-03  6.5377001E-03   10.79878       10.81303    
  6.5377001E-03  6.5923799E-03   12.31049       20.06006    
  6.5923799E-03  6.6475999E-03   11.08436       20.85271    
  6.6475999E-03  6.7031998E-03   11.70262       17.10052    
  6.7031998E-03  6.8728901E-03   11.23813       8.743851    
  6.8728901E-03  7.0468802E-03   9.067937       10.79610    
  7.0468802E-03  7.2252699E-03   10.31949       7.021929    
  7.2252699E-03  7.4081798E-03   9.149067       12.29538    
  7.4081798E-03  7.5957198E-03   7.955555       14.75091    
  7.5957198E-03  7.7880099E-03   8.935551       9.878752    
  7.7880099E-03  7.9851598E-03   6.151371       12.50127    
  7.9851598E-03  8.1873098E-03   9.489017       7.915967    
  8.1873098E-03  8.3945701E-03   7.154885       13.69207    
  8.3945701E-03  8.6070802E-03   8.662279       8.834829    
  8.6070802E-03  8.8249696E-03   7.437790       12.54500    
  8.8249696E-03  9.0483697E-03   4.905556       15.29082    
  9.0483697E-03  9.2774397E-03   6.399623       8.913332    
  9.2774397E-03  9.5122904E-03   7.492808       10.92071    
  9.5122904E-03  9.7530996E-03   6.051551       8.387840    
  9.7530996E-03  9.9999998E-03   6.837749       9.787525    
  9.9999998E-03  1.0253200E-02   4.918487       10.47848    
  1.0253200E-02  1.0512700E-02   6.591897       9.900238    
  1.0512700E-02  1.0778800E-02   5.736450       11.81257    
  1.0778800E-02  1.1051700E-02   5.684088       13.49349    
  1.1051700E-02  1.1331500E-02   5.659801       13.06715    
  1.1331500E-02  1.1618300E-02   4.309394       8.934301    
  1.1618300E-02  1.1912500E-02   4.523283       9.780453    
  1.1912500E-02  1.2214000E-02   4.805574       10.82874    
  1.2214000E-02  1.2523200E-02   4.471697       10.69559    
  1.2523200E-02  1.2840200E-02   4.261239       11.54140    
  1.2840200E-02  1.3165300E-02   3.823159       14.21968    
  1.3165300E-02  1.3498600E-02   3.583601       16.34845    
  1.3498600E-02  1.3840300E-02   4.088084       11.12645    
  1.3840300E-02  1.4190700E-02   4.159933       9.078713    
  1.4190700E-02  1.4549900E-02   3.139783       9.395665    
  1.4549900E-02  1.4918300E-02   3.810831       14.00535    
  1.4918300E-02  1.5295900E-02   3.423413       14.13138    
  1.5295900E-02  1.5683100E-02   3.807347       14.87571    
  1.5683100E-02  1.6080100E-02   3.233224       11.40175    
  1.6080100E-02  1.6487200E-02   2.994680       19.08802    
  1.6487200E-02  1.6904600E-02   3.299188       15.87284    
  1.6904600E-02  1.7332500E-02   2.495786       12.32816    
  1.7332500E-02  1.7771300E-02   2.613846       13.75744    
  1.7771300E-02  1.8221200E-02   2.038528       14.56939    
  1.8221200E-02  1.8682500E-02   1.989110       15.79882    
  1.8682500E-02  1.9155400E-02   2.557815       16.59094    
  1.9155400E-02  1.9640300E-02   2.353858       16.87150    
  1.9640300E-02  2.0000000E-02   2.521995       18.12033    
