 # Detector n:  1  HeIInflux 
 # N. of energy intervals 260
  1.0000100E-14  2.0000000E-13  1.1353231E+11   17.12060    
  2.0000000E-13  2.9297300E-13  2.3735365E+11   11.88472    
  2.9297300E-13  4.2916701E-13  3.2060362E+11   9.357967    
  4.2916701E-13  6.2867300E-13  5.3385524E+11   6.398295    
  6.2867300E-13  9.2092198E-13  7.0934725E+11   5.241380    
  9.2092198E-13  1.3490300E-12  1.0065023E+12   3.450499    
  1.3490300E-12  1.9761499E-12  1.2408012E+12   2.119928    
  1.9761499E-12  2.8947901E-12  1.6266187E+12   1.061757    
  2.8947901E-12  4.2404799E-12  1.9238018E+12   1.316901    
  4.2404799E-12  6.2117499E-12  2.1459467E+12   1.129818    
  6.2117499E-12  9.0993801E-12  2.1834507E+12  0.7388936    
  9.0993801E-12  1.3329400E-11  1.9650087E+12  0.6867534    
  1.3329400E-11  1.9525799E-11  1.4591081E+12  0.6170948    
  1.9525799E-11  2.8602700E-11  8.7332749E+11  0.7235931    
  2.8602700E-11  4.1899099E-11  4.0200218E+11  0.5462456    
  4.1899099E-11  6.1376598E-11  1.5337683E+11  0.8641310    
  6.1376598E-11  8.9908601E-11  6.2891917E+10   1.052761    
  8.9908601E-11  1.3170399E-10  2.8644499E+10   1.020350    
  1.3170399E-10  1.9292901E-10  1.5569597E+10   1.163166    
  1.9292901E-10  2.8261499E-10  9.3906350E+09   1.143703    
  2.8261499E-10  4.1399401E-10  6.0645571E+09  0.7874576    
  4.1399401E-10  5.3157900E-10  4.2736092E+09  0.5735580    
  5.3157900E-10  6.2506200E-10  3.5013361E+09  0.8691892    
  6.2506200E-10  6.8256001E-10  3.1768264E+09  0.7961565    
  6.8256001E-10  8.3368101E-10  2.6292209E+09   1.079553    
  8.3368101E-10  8.7642499E-10  2.2824755E+09   1.861690    
  8.7642499E-10  1.1253500E-09  1.9808375E+09  0.8371366    
  1.1253500E-09  1.4449800E-09  1.5405041E+09  0.7737245    
  1.4449800E-09  1.8553900E-09  1.1950072E+09  0.6176324    
  1.8553900E-09  2.3823701E-09  9.3156749E+08  0.6249488    
  2.3823701E-09  3.0590199E-09  7.2563731E+08  0.7282454    
  3.0590199E-09  3.9278598E-09  5.5651014E+08  0.9029754    
  3.9278598E-09  5.0434799E-09  4.2919034E+08  0.7199167    
  5.0434799E-09  6.4759500E-09  3.3362838E+08  0.6098168    
  6.4759500E-09  8.3152898E-09  2.6313978E+08  0.6662686    
  8.3152898E-09  1.0677000E-08  2.0285771E+08  0.5623960    
  1.0677000E-08  1.3709600E-08  1.5711027E+08  0.9581590    
  1.3709600E-08  1.7603501E-08  1.2310507E+08  0.5812370    
  1.7603501E-08  2.2603301E-08  9.5129456E+07  0.6149144    
  2.2603301E-08  2.9023200E-08  7.4076992E+07  0.8804824    
  2.9023200E-08  3.7266499E-08  5.6796912E+07  0.6771958    
  3.7266499E-08  4.7851199E-08  4.4677028E+07  0.8955220    
  4.7851199E-08  6.1442101E-08  3.4478668E+07   1.026057    
  6.1442101E-08  7.8893301E-08  2.6833342E+07  0.7798923    
  7.8893301E-08  1.0130100E-07  2.0780794E+07  0.6648430    
  1.0130100E-07  1.3007300E-07  1.6278346E+07  0.6890994    
  1.3007300E-07  1.6701701E-07  1.2358764E+07  0.8923546    
  1.6701701E-07  2.1445400E-07   9630826.      0.6170270    
  2.1445400E-07  2.7536399E-07   7409448.      0.5002835    
  2.7536399E-07  3.5357499E-07   5750131.      0.8732640    
  3.5357499E-07  4.5399901E-07   4402847.      0.4096010    
  4.5399901E-07  5.8294700E-07   3439345.      0.6619631    
  5.8294700E-07  7.4851800E-07   2612254.      0.5500859    
  7.4851800E-07  9.6111603E-07   2002323.      0.9404381    
  9.6111603E-07  1.2341000E-06   1543704.      0.7399061    
  1.2341000E-06  1.3638900E-06   1261534.       1.338364    
  1.3638900E-06  1.5073300E-06   1159944.       1.133580    
  1.5073300E-06  1.5846100E-06   1058088.       1.817182    
  1.5846100E-06  1.6658601E-06   1039562.       1.116523    
  1.6658601E-06  1.8410600E-06   946686.1       1.186500    
  1.8410600E-06  2.0346799E-06   823081.1       1.000007    
  2.0346799E-06  2.2486699E-06   750661.5       1.519401    
  2.2486699E-06  2.4851699E-06   673418.9      0.8557957    
  2.4851699E-06  2.6125899E-06   627939.7       1.161372    
  2.6125899E-06  2.7465401E-06   572380.4       1.559747    
  2.7465401E-06  2.8634900E-06   552035.2       2.004164    
  2.8634900E-06  3.0353899E-06   547692.3       1.577609    
  3.0353899E-06  3.3546301E-06   490733.2       1.251218    
  3.3546301E-06  3.7074401E-06   445523.8      0.9758741    
  3.7074401E-06  4.0973500E-06   392534.8      0.9796717    
  4.0973500E-06  4.3074201E-06   360414.1      0.8083256    
  4.3074201E-06  4.5282700E-06   344014.1       1.694296    
  4.5282700E-06  5.0045101E-06   318091.5       1.109053    
  5.0045101E-06  5.5308401E-06   310418.5      0.8892041    
  5.5308401E-06  6.2672698E-06   225654.9      0.7971362    
  6.2672698E-06  7.1017398E-06   222919.9       1.332515    
  7.1017398E-06  8.0473301E-06   190417.4       1.388682    
  8.0473301E-06  9.1188203E-06   166447.0       1.090685    
  9.1188203E-06  1.0333000E-05   144353.5      0.9607055    
  1.0333000E-05  1.1708800E-05   122109.3       1.534346    
  1.1708800E-05  1.3267800E-05   108665.0       1.352364    
  1.3267800E-05  1.5034400E-05   93633.11       1.283723    
  1.5034400E-05  1.7036200E-05   81933.59       1.138976    
  1.7036200E-05  1.9304500E-05   70840.06       1.374324    
  1.9304500E-05  2.1334799E-05   60966.13       1.275913    
  2.1334799E-05  2.1874899E-05   59738.07       2.962635    
  2.1874899E-05  2.3578599E-05   53129.70       1.362165    
  2.3578599E-05  2.4175501E-05   52428.01       2.547380    
  2.4175501E-05  2.4787500E-05   49890.83       1.584437    
  2.4787500E-05  2.6058400E-05   49421.16       1.917367    
  2.6058400E-05  2.8087899E-05   46995.99       1.614855    
  2.8087899E-05  3.1827800E-05   48777.68      0.9097037    
  3.1827800E-05  3.4306700E-05   32236.13       2.232278    
  3.4306700E-05  3.5175199E-05   18158.61       3.667832    
  3.5175199E-05  3.6065601E-05   15317.30       3.048059    
  3.6065601E-05  4.0867701E-05   21272.77       1.896319    
  4.0867701E-05  4.6309200E-05   23645.40      0.8708582    
  4.6309200E-05  5.2475199E-05   21026.72       1.489387    
  5.2475199E-05  5.6562199E-05   19087.23       2.056485    
  5.6562199E-05  5.9462200E-05   17447.90       2.855024    
  5.9462200E-05  6.2510902E-05   17136.57       2.383040    
  6.2510902E-05  6.7379500E-05   15828.05       1.995102    
  6.7379500E-05  7.6350902E-05   15281.98       1.330179    
  7.6350902E-05  8.6516899E-05   11605.38       1.411551    
  8.6516899E-05  9.8036500E-05   6912.861       2.294706    
  9.8036500E-05  1.1109000E-04   8001.260       1.213841    
  1.1109000E-04  1.1678600E-04   7812.293       2.196128    
  1.1678600E-04  1.2277300E-04   5662.556       2.602731    
  1.2277300E-04  1.2906799E-04   7923.849       2.570398    
  1.2906799E-04  1.3568600E-04   7312.793       2.058980    
  1.3568600E-04  1.4264201E-04   6019.978       2.297613    
  1.4264201E-04  1.4995600E-04   4381.283       2.442646    
  1.4995600E-04  1.5764400E-04   4219.072       2.676071    
  1.5764400E-04  1.6163501E-04   3377.492       4.613171    
  1.6163501E-04  1.6572700E-04   3807.223       4.308300    
  1.6572700E-04  1.6992200E-04   4335.183       3.356029    
  1.6992200E-04  1.7422400E-04   4030.872       3.633877    
  1.7422400E-04  1.8315599E-04   4215.773       2.393469    
  1.8315599E-04  1.9254700E-04   4128.107       2.201509    
  1.9254700E-04  2.0241900E-04   3678.603       2.562896    
  2.0241900E-04  2.1279699E-04   2863.682       2.785064    
  2.1279699E-04  2.2370800E-04   3128.117       2.807814    
  2.2370800E-04  2.3517800E-04   2973.555       2.264153    
  2.3517800E-04  2.4723500E-04   2826.487       2.602349    
  2.4723500E-04  2.5991100E-04   2882.944       2.996120    
  2.5991100E-04  2.7323700E-04   2885.073       4.105235    
  2.7323700E-04  2.8015400E-04   2660.982       2.768000    
  2.8015400E-04  2.8724599E-04   1946.614       4.182148    
  2.8724599E-04  2.9451799E-04   1997.124       4.453649    
  2.9451799E-04  3.0197401E-04   1843.138       4.716993    
  3.0197401E-04  3.0961799E-04   2041.522       4.047599    
  3.0961799E-04  3.1745600E-04   1877.058       3.616264    
  3.1745600E-04  3.3373301E-04   1856.415       2.753472    
  3.3373301E-04  3.5084400E-04   1813.958       2.655601    
  3.5084400E-04  3.6883200E-04   1551.300       2.482683    
  3.6883200E-04  3.8774201E-04   1453.768       3.343038    
  3.8774201E-04  4.0762199E-04   1435.396       2.397215    
  4.0762199E-04  4.2852099E-04   1182.561       2.737468    
  4.2852099E-04  4.5049199E-04   1079.703       3.338680    
  4.5049199E-04  4.7358900E-04   1089.044       3.157356    
  4.7358900E-04  4.9787102E-04   970.9269       3.301138    
  4.9787102E-04  5.1047403E-04   1010.342       4.467377    
  5.1047403E-04  5.2339700E-04   996.6578       4.660118    
  5.2339700E-04  5.3664698E-04   685.0964       3.376244    
  5.3664698E-04  5.5023201E-04   794.7030       5.353425    
  5.5023201E-04  5.7844300E-04   727.1642       2.777294    
  5.7844300E-04  6.0810102E-04   740.2333       2.156621    
  6.0810102E-04  6.3927902E-04   628.8506       3.673137    
  6.3927902E-04  6.7205500E-04   533.9741       2.330686    
  6.7205500E-04  7.0651202E-04   496.1759       2.936707    
  7.0651202E-04  7.4273598E-04   457.7097       2.873611    
  7.4273598E-04  7.8081700E-04   389.8119       2.502993    
  7.8081700E-04  8.2085002E-04   300.6722       2.924393    
  8.2085002E-04  8.6293602E-04   271.0229       3.622553    
  8.6293602E-04  9.0717903E-04   245.0605       2.509898    
  9.0717903E-04  9.5369201E-04   228.0107       2.536864    
  9.5369201E-04  9.6163998E-04   231.6032       6.429357    
  9.6163998E-04  9.7783399E-04   199.4677       6.104036    
  9.7783399E-04  1.0025901E-03   194.2536       4.479991    
  1.0025901E-03  1.0539900E-03   182.2008       3.865781    
  1.0539900E-03  1.1080300E-03   171.6231       2.788348    
  1.1080300E-03  1.1648400E-03   149.2492       3.369564    
  1.1648400E-03  1.1943300E-03   144.5241       5.351775    
  1.1943300E-03  1.2245600E-03   139.6361       6.389859    
  1.2245600E-03  1.2873500E-03   134.9737       3.719110    
  1.2873500E-03  1.3533500E-03   135.4652       3.487409    
  1.3533500E-03  1.4227401E-03   132.3292       2.923935    
  1.4227401E-03  1.4956900E-03   121.6429       3.119307    
  1.4956900E-03  1.5335500E-03   126.0018       3.987209    
  1.5335500E-03  1.5723699E-03   106.4906       3.815319    
  1.5723699E-03  1.6121800E-03   115.6888       6.783679    
  1.6121800E-03  1.6529900E-03   115.6105       5.237662    
  1.6529900E-03  1.7377400E-03   106.0966       4.273618    
  1.7377400E-03  1.8268300E-03   109.4260       1.807144    
  1.8268300E-03  1.8730800E-03   107.1259       4.952544    
  1.8730800E-03  1.9205000E-03   104.8561       6.119333    
  1.9205000E-03  1.9691200E-03   99.10035       6.894378    
  1.9691200E-03  2.0189700E-03   92.20076       4.382492    
  2.0189700E-03  2.1224800E-03   87.18410       3.974288    
  2.1224800E-03  2.2313001E-03   83.94811       4.180333    
  2.2313001E-03  2.2688799E-03   75.04225       7.113861    
  2.2688799E-03  2.3068599E-03   67.82897       10.48780    
  2.3068599E-03  2.3457000E-03   64.20055       10.47419    
  2.3457000E-03  2.3652499E-03   69.38293       13.49749    
  2.3652499E-03  2.3852000E-03   84.51712       9.304313    
  2.3852000E-03  2.4251300E-03   64.05312       5.777521    
  2.4251300E-03  2.4659701E-03   74.54483       7.985777    
  2.4659701E-03  2.5923999E-03   62.14724       4.334030    
  2.5923999E-03  2.7253199E-03   54.16503       4.312574    
  2.7253199E-03  2.8650500E-03   44.74499       5.480237    
  2.8650500E-03  3.0119400E-03   49.71113       6.032872    
  3.0119400E-03  3.0881900E-03   44.48637       8.526357    
  3.0881900E-03  3.1663701E-03   40.80842       7.555470    
  3.1663701E-03  3.2465300E-03   44.19073       6.076758    
  3.2465300E-03  3.3287101E-03   34.67513       11.28415    
  3.3287101E-03  3.4993801E-03   36.79604       8.596315    
  3.4993801E-03  3.6787901E-03   31.96015       7.067170    
  3.6787901E-03  3.8674099E-03   31.14178       7.708008    
  3.8674099E-03  4.0656999E-03   29.36606       5.010323    
  4.0656999E-03  4.2741499E-03   26.27933       5.947566    
  4.2741499E-03  4.4932901E-03   26.93865       7.074636    
  4.4932901E-03  4.6070400E-03   26.12653       8.047400    
  4.6070400E-03  4.7236700E-03   22.56628       9.397635    
  4.7236700E-03  4.8432499E-03   24.00928       10.74921    
  4.8432499E-03  4.9658502E-03   22.19223       8.546492    
  4.9658502E-03  5.2204598E-03   21.53206       4.741671    
  5.2204598E-03  5.4881200E-03   20.55775       6.195792    
  5.4881200E-03  5.7695000E-03   17.36960       8.324891    
  5.7695000E-03  5.9155500E-03   16.51741       9.606042    
  5.9155500E-03  6.0653100E-03   15.40126       9.517124    
  6.0653100E-03  6.2188501E-03   16.26326       8.544372    
  6.2188501E-03  6.3762800E-03   17.65113       9.764206    
  6.3762800E-03  6.5377001E-03   16.79224       11.22453    
  6.5377001E-03  6.5923799E-03   15.22779       13.02888    
  6.5923799E-03  6.6475999E-03   17.34958       15.54491    
  6.6475999E-03  6.7031998E-03   13.86155       21.26038    
  6.7031998E-03  6.8728901E-03   13.66048       10.78485    
  6.8728901E-03  7.0468802E-03   13.91246       11.23707    
  7.0468802E-03  7.2252699E-03   14.44097       8.355942    
  7.2252699E-03  7.4081798E-03   13.52283       6.998501    
  7.4081798E-03  7.5957198E-03   11.07761       7.337173    
  7.5957198E-03  7.7880099E-03   9.966426       12.36597    
  7.7880099E-03  7.9851598E-03   12.05915       10.31520    
  7.9851598E-03  8.1873098E-03   11.86606       8.094272    
  8.1873098E-03  8.3945701E-03   11.37244       7.851892    
  8.3945701E-03  8.6070802E-03   9.012823       11.41682    
  8.6070802E-03  8.8249696E-03   9.420654       11.07707    
  8.8249696E-03  9.0483697E-03   8.786761       13.30840    
  9.0483697E-03  9.2774397E-03   7.393785       15.13789    
  9.2774397E-03  9.5122904E-03   7.023531       11.63422    
  9.5122904E-03  9.7530996E-03   8.812840       11.70504    
  9.7530996E-03  9.9999998E-03   8.630573       14.23616    
  9.9999998E-03  1.0253200E-02   9.931016       10.64748    
  1.0253200E-02  1.0512700E-02   8.366626       13.02541    
  1.0512700E-02  1.0778800E-02   7.768237       9.575948    
  1.0778800E-02  1.1051700E-02   8.296403       12.48881    
  1.1051700E-02  1.1331500E-02   7.431521       11.44421    
  1.1331500E-02  1.1618300E-02   7.237842       13.82863    
  1.1618300E-02  1.1912500E-02   7.193351       10.97744    
  1.1912500E-02  1.2214000E-02   6.019999       10.31311    
  1.2214000E-02  1.2523200E-02   6.793662       8.640365    
  1.2523200E-02  1.2840200E-02   6.930720       12.97741    
  1.2840200E-02  1.3165300E-02   4.814067       10.35898    
  1.3165300E-02  1.3498600E-02   5.964512       10.64896    
  1.3498600E-02  1.3840300E-02   5.395511       13.40110    
  1.3840300E-02  1.4190700E-02   4.904770       10.91994    
  1.4190700E-02  1.4549900E-02   5.841525       14.20093    
  1.4549900E-02  1.4918300E-02   4.637547       14.88806    
  1.4918300E-02  1.5295900E-02   5.161584       9.322094    
  1.5295900E-02  1.5683100E-02   4.584014       12.22544    
  1.5683100E-02  1.6080100E-02   5.239957       13.95386    
  1.6080100E-02  1.6487200E-02   3.626521       20.71019    
  1.6487200E-02  1.6904600E-02   3.451186       14.11532    
  1.6904600E-02  1.7332500E-02   3.984562       15.24936    
  1.7332500E-02  1.7771300E-02   3.666557       12.08945    
  1.7771300E-02  1.8221200E-02   2.902087       9.633998    
  1.8221200E-02  1.8682500E-02   3.293526       17.19962    
  1.8682500E-02  1.9155400E-02   3.333867       14.42527    
  1.9155400E-02  1.9640300E-02   3.720028       12.25071    
  1.9640300E-02  2.0000000E-02   2.978025       18.94481    
