 # Detector n:            1   HeIInflux 
 # N. of energy intervals         260
  1.0000100E-14  2.0000000E-13  8.3003064E+10   1.004898    
  2.0000000E-13  2.9297300E-13  1.8346700E+11   1.001750    
  2.9297300E-13  4.2916701E-13  2.6142319E+11  0.7021343    
  4.2916701E-13  6.2867300E-13  3.6829980E+11  0.4814031    
  6.2867300E-13  9.2092198E-13  5.0554441E+11  0.3333647    
  9.2092198E-13  1.3490300E-12  6.8391358E+11  0.2480164    
  1.3490300E-12  1.9761499E-12  8.8485954E+11  0.1825424    
  1.9761499E-12  2.8947901E-12  1.1078549E+12  0.1395794    
  2.8947901E-12  4.2404799E-12  1.3168717E+12  0.1082547    
  4.2404799E-12  6.2117499E-12  1.4641385E+12  9.2929006E-02
  6.2117499E-12  9.0993801E-12  1.4888716E+12  8.3558112E-02
  9.0993801E-12  1.3329400E-11  1.3525224E+12  7.6711953E-02
  1.3329400E-11  1.9525799E-11  1.0620263E+12  7.5887881E-02
  1.9525799E-11  2.8602700E-11  7.0100307E+11  7.5503595E-02
  2.8602700E-11  4.1899099E-11  3.8850085E+11  7.8176580E-02
  4.1899099E-11  6.1376598E-11  1.9394837E+11  8.5073754E-02
  6.1376598E-11  8.9908601E-11  8.8390337E+10  9.9277727E-02
  8.9908601E-11  1.3170399E-10  3.4358077E+10  0.1185977    
  1.3170399E-10  1.9292901E-10  1.2690663E+10  0.1614578    
  1.9292901E-10  2.8261499E-10  5.7970094E+09  0.1907116    
  2.8261499E-10  4.1399401E-10  3.3742042E+09  0.2077400    
  4.1399401E-10  5.3157900E-10  2.3694126E+09  0.2476899    
  5.3157900E-10  6.2506200E-10  1.8927194E+09  0.3075916    
  6.2506200E-10  6.8256001E-10  1.6457117E+09  0.4235120    
  6.8256001E-10  8.3368101E-10  1.4140863E+09  0.2864371    
  8.3368101E-10  8.7642499E-10  1.2287400E+09  0.5553594    
  8.7642499E-10  1.1253500E-09  1.0461994E+09  0.2589314    
  1.1253500E-09  1.4449800E-09  8.0486573E+08  0.2669993    
  1.4449800E-09  1.8553900E-09  6.2078093E+08  0.2737670    
  1.8553900E-09  2.3823701E-09  4.7825773E+08  0.2857237    
  2.3823701E-09  3.0590199E-09  3.6861754E+08  0.2663646    
  3.0590199E-09  3.9278598E-09  2.8438054E+08  0.2762725    
  3.9278598E-09  5.0434799E-09  2.1995187E+08  0.2712641    
  5.0434799E-09  6.4759500E-09  1.7100163E+08  0.2714933    
  6.4759500E-09  8.3152898E-09  1.3162279E+08  0.2719238    
  8.3152898E-09  1.0677000E-08  1.0258467E+08  0.2750453    
  1.0677000E-08  1.3709600E-08  7.9762064E+07  0.2581140    
  1.3709600E-08  1.7603501E-08  6.1313712E+07  0.2740982    
  1.7603501E-08  2.2603301E-08  4.7490800E+07  0.2712253    
  2.2603301E-08  2.9023200E-08  3.6595796E+07  0.2977245    
  2.9023200E-08  3.7266499E-08  2.8460252E+07  0.2902801    
  3.7266499E-08  4.7851199E-08  2.2002378E+07  0.2806528    
  4.7851199E-08  6.1442101E-08  1.6916898E+07  0.2888660    
  6.1442101E-08  7.8893301E-08  1.3088214E+07  0.2762427    
  7.8893301E-08  1.0130100E-07  1.0074167E+07  0.2790703    
  1.0130100E-07  1.3007300E-07   7745544.      0.2831753    
  1.3007300E-07  1.6701701E-07   5974344.      0.2915063    
  1.6701701E-07  2.1445400E-07   4567226.      0.2964699    
  2.1445400E-07  2.7536399E-07   3518943.      0.2853511    
  2.7536399E-07  3.5357499E-07   2721281.      0.2936095    
  3.5357499E-07  4.5399901E-07   2037936.      0.2960753    
  4.5399901E-07  5.8294700E-07   1572058.      0.3014836    
  5.8294700E-07  7.4851800E-07   1213399.      0.3076501    
  7.4851800E-07  9.6111603E-07   928446.1      0.3001416    
  9.6111603E-07  1.2341000E-06   704668.1      0.3050362    
  1.2341000E-06  1.3638900E-06   585500.8      0.4849635    
  1.3638900E-06  1.5073300E-06   526566.6      0.4710521    
  1.5073300E-06  1.5846100E-06   491732.2      0.6606224    
  1.5846100E-06  1.6658601E-06   458567.0      0.7029566    
  1.6658601E-06  1.8410600E-06   422993.2      0.4673817    
  1.8410600E-06  2.0346799E-06   406880.2      0.4692279    
  2.0346799E-06  2.2486699E-06   318978.7      0.4982939    
  2.2486699E-06  2.4851699E-06   303137.6      0.4739656    
  2.4851699E-06  2.6125899E-06   265415.8      0.7254779    
  2.6125899E-06  2.7465401E-06   248333.3      0.6960580    
  2.7465401E-06  2.8634900E-06   250384.2      0.7544703    
  2.8634900E-06  3.0353899E-06   239060.4      0.6576177    
  3.0353899E-06  3.3546301E-06   217240.4      0.4903928    
  3.3546301E-06  3.7074401E-06   195611.1      0.4870366    
  3.7074401E-06  4.0973500E-06   174668.4      0.5076354    
  4.0973500E-06  4.3074201E-06   160329.0      0.7424001    
  4.3074201E-06  4.5282700E-06   148589.7      0.7061635    
  4.5282700E-06  5.0045101E-06   139519.6      0.4958301    
  5.0045101E-06  5.5308401E-06   139806.5      0.5001056    
  5.5308401E-06  6.2672698E-06   92070.27      0.5140491    
  6.2672698E-06  7.1017398E-06   94857.92      0.4605353    
  7.1017398E-06  8.0473301E-06   82394.13      0.5078626    
  8.0473301E-06  9.1188203E-06   71214.91      0.4660315    
  9.1188203E-06  1.0333000E-05   61330.45      0.4965875    
  1.0333000E-05  1.1708800E-05   53296.95      0.4976534    
  1.1708800E-05  1.3267800E-05   46304.25      0.4742110    
  1.3267800E-05  1.5034400E-05   39768.62      0.5159021    
  1.5034400E-05  1.7036200E-05   34196.57      0.5075417    
  1.7036200E-05  1.9304500E-05   29421.62      0.5048175    
  1.9304500E-05  2.1334799E-05   26088.29      0.5595762    
  2.1334799E-05  2.1874899E-05   24646.53       1.108711    
  2.1874899E-05  2.3578599E-05   22990.37      0.6754750    
  2.3578599E-05  2.4175501E-05   21987.12       1.148726    
  2.4175501E-05  2.4787500E-05   21753.26       1.118101    
  2.4787500E-05  2.6058400E-05   20883.85      0.8139457    
  2.6058400E-05  2.8087899E-05   19787.80      0.6367503    
  2.8087899E-05  3.1827800E-05   21018.40      0.4803255    
  3.1827800E-05  3.4306700E-05   12430.47      0.7235853    
  3.4306700E-05  3.5175199E-05   6086.769       1.711177    
  3.5175199E-05  3.6065601E-05   5895.731       1.722453    
  3.6065601E-05  4.0867701E-05   7874.729      0.7063539    
  4.0867701E-05  4.6309200E-05   9313.951      0.5705895    
  4.6309200E-05  5.2475199E-05   8532.951      0.5941888    
  5.2475199E-05  5.6562199E-05   7667.504      0.7388370    
  5.6562199E-05  5.9462200E-05   7131.103      0.8774258    
  5.9462200E-05  6.2510902E-05   6790.746      0.9247040    
  6.2510902E-05  6.7379500E-05   6670.742      0.6701516    
  6.7379500E-05  7.6350902E-05   6554.546      0.5422848    
  7.6350902E-05  8.6516899E-05   4575.443      0.6310623    
  8.6516899E-05  9.8036500E-05   2562.966      0.7540045    
  9.8036500E-05  1.1109000E-04   3176.893      0.6335073    
  1.1109000E-04  1.1678600E-04   3178.589      0.9758506    
  1.1678600E-04  1.2277300E-04   2189.807       1.140365    
  1.2277300E-04  1.2906799E-04   3220.074      0.9004467    
  1.2906799E-04  1.3568600E-04   3242.248      0.8547087    
  1.3568600E-04  1.4264201E-04   2362.772       1.001102    
  1.4264201E-04  1.4995600E-04   1758.047       1.090522    
  1.4995600E-04  1.5764400E-04   1666.239       1.154079    
  1.5764400E-04  1.6163501E-04   1284.522       1.768347    
  1.6163501E-04  1.6572700E-04   1639.940       1.569132    
  1.6572700E-04  1.6992200E-04   1670.433       1.545249    
  1.6992200E-04  1.7422400E-04   1682.886       1.489638    
  1.7422400E-04  1.8315599E-04   1734.625       1.014103    
  1.8315599E-04  1.9254700E-04   1741.929      0.9628856    
  1.9254700E-04  2.0241900E-04   1581.479       1.057184    
  2.0241900E-04  2.1279699E-04   1219.107       1.123125    
  2.1279699E-04  2.2370800E-04   1221.068       1.060993    
  2.2370800E-04  2.3517800E-04   1213.912       1.080611    
  2.3517800E-04  2.4723500E-04   1230.179      0.9955510    
  2.4723500E-04  2.5991100E-04   1232.660       1.011416    
  2.5991100E-04  2.7323700E-04   1279.418      0.9316335    
  2.7323700E-04  2.8015400E-04   1110.509       1.430130    
  2.8015400E-04  2.8724599E-04   886.3236       1.521519    
  2.8724599E-04  2.9451799E-04   870.6270       1.552669    
  2.9451799E-04  3.0197401E-04   888.8451       1.500293    
  3.0197401E-04  3.0961799E-04   885.5899       1.509015    
  3.0961799E-04  3.1745600E-04   801.3925       1.529503    
  3.1745600E-04  3.3373301E-04   831.2384       1.087777    
  3.3373301E-04  3.5084400E-04   831.8402      0.9891242    
  3.5084400E-04  3.6883200E-04   708.4116       1.094830    
  3.6883200E-04  3.8774201E-04   637.4680       1.090958    
  3.8774201E-04  4.0762199E-04   630.3412       1.122841    
  4.0762199E-04  4.2852099E-04   506.1812       1.148931    
  4.2852099E-04  4.5049199E-04   478.8237       1.160455    
  4.5049199E-04  4.7358900E-04   468.7500       1.124711    
  4.7358900E-04  4.9787102E-04   460.9678       1.125038    
  4.9787102E-04  5.1047403E-04   451.3095       1.622589    
  5.1047403E-04  5.2339700E-04   429.8044       1.510100    
  5.2339700E-04  5.3664698E-04   357.4160       1.720514    
  5.3664698E-04  5.5023201E-04   379.5573       1.554192    
  5.5023201E-04  5.7844300E-04   351.5826       1.103927    
  5.7844300E-04  6.0810102E-04   339.7732       1.172889    
  6.0810102E-04  6.3927902E-04   296.3950       1.169929    
  6.3927902E-04  6.7205500E-04   250.4724       1.219197    
  6.7205500E-04  7.0651202E-04   250.6506       1.163896    
  7.0651202E-04  7.4273598E-04   221.6940       1.145629    
  7.4273598E-04  7.8081700E-04   191.8649       1.227895    
  7.8081700E-04  8.2085002E-04   156.0987       1.239922    
  8.2085002E-04  8.6293602E-04   135.8965       1.189082    
  8.6293602E-04  9.0717903E-04   126.4525       1.208687    
  9.0717903E-04  9.5369201E-04   112.7515       1.226397    
  9.5369201E-04  9.6163998E-04   109.3342       2.976922    
  9.6163998E-04  9.7783399E-04   100.2319       2.020192    
  9.7783399E-04  1.0025901E-03   96.54987       1.800649    
  1.0025901E-03  1.0539900E-03   90.47842       1.243307    
  1.0539900E-03  1.1080300E-03   90.12293       1.196268    
  1.1080300E-03  1.1648400E-03   81.45349       1.241142    
  1.1648400E-03  1.1943300E-03   81.61604       1.706669    
  1.1943300E-03  1.2245600E-03   80.66360       1.665742    
  1.2245600E-03  1.2873500E-03   79.25616       1.241171    
  1.2873500E-03  1.3533500E-03   77.50841       1.171461    
  1.3533500E-03  1.4227401E-03   78.32265       1.245366    
  1.4227401E-03  1.4956900E-03   75.95296       1.232825    
  1.4956900E-03  1.5335500E-03   77.43229       1.657509    
  1.5335500E-03  1.5723699E-03   77.92091       1.705160    
  1.5723699E-03  1.6121800E-03   72.92740       1.685704    
  1.6121800E-03  1.6529900E-03   74.85419       1.645642    
  1.6529900E-03  1.7377400E-03   73.31546       1.220305    
  1.7377400E-03  1.8268300E-03   72.08918       1.200481    
  1.8268300E-03  1.8730800E-03   70.78947       1.731366    
  1.8730800E-03  1.9205000E-03   66.71358       1.694677    
  1.9205000E-03  1.9691200E-03   66.75642       1.725116    
  1.9691200E-03  2.0189700E-03   67.27202       1.702719    
  2.0189700E-03  2.1224800E-03   63.66800       1.267851    
  2.1224800E-03  2.2313001E-03   60.21590       1.244727    
  2.2313001E-03  2.2688799E-03   59.05925       1.999532    
  2.2688799E-03  2.3068599E-03   59.60785       2.156282    
  2.3068599E-03  2.3457000E-03   55.94423       2.115758    
  2.3457000E-03  2.3652499E-03   57.86963       3.018939    
  2.3652499E-03  2.3852000E-03   61.72356       2.993018    
  2.3852000E-03  2.4251300E-03   57.47724       2.272468    
  2.4251300E-03  2.4659701E-03   55.06509       2.247732    
  2.4659701E-03  2.5923999E-03   49.27773       1.363760    
  2.5923999E-03  2.7253199E-03   47.11579       1.421340    
  2.7253199E-03  2.8650500E-03   43.27583       1.432515    
  2.8650500E-03  3.0119400E-03   41.40490       1.403195    
  3.0119400E-03  3.0881900E-03   39.15528       1.991422    
  3.0881900E-03  3.1663701E-03   37.83502       2.064909    
  3.1663701E-03  3.2465300E-03   36.36753       1.960643    
  3.2465300E-03  3.3287101E-03   36.20232       1.928465    
  3.3287101E-03  3.4993801E-03   32.57670       1.525291    
  3.4993801E-03  3.6787901E-03   30.51603       1.503430    
  3.6787901E-03  3.8674099E-03   29.63953       1.524981    
  3.8674099E-03  4.0656999E-03   28.60405       1.477705    
  4.0656999E-03  4.2741499E-03   27.59800       1.568377    
  4.2741499E-03  4.4932901E-03   24.80743       1.516298    
  4.4932901E-03  4.6070400E-03   24.29508       2.217944    
  4.6070400E-03  4.7236700E-03   23.18107       2.211862    
  4.7236700E-03  4.8432499E-03   22.57230       2.214494    
  4.8432499E-03  4.9658502E-03   22.23470       2.196756    
  4.9658502E-03  5.2204598E-03   21.57676       1.598446    
  5.2204598E-03  5.4881200E-03   19.94209       1.600078    
  5.4881200E-03  5.7695000E-03   18.25837       1.662347    
  5.7695000E-03  5.9155500E-03   17.22532       2.305291    
  5.9155500E-03  6.0653100E-03   16.55793       2.283860    
  6.0653100E-03  6.2188501E-03   15.76745       2.397161    
  6.2188501E-03  6.3762800E-03   15.88753       2.321865    
  6.3762800E-03  6.5377001E-03   15.42053       2.399024    
  6.5377001E-03  6.5923799E-03   15.12889       3.998355    
  6.5923799E-03  6.6475999E-03   15.20273       3.956567    
  6.6475999E-03  6.7031998E-03   14.72429       4.066294    
  6.7031998E-03  6.8728901E-03   14.19854       2.341991    
  6.8728901E-03  7.0468802E-03   13.12503       2.436552    
  7.0468802E-03  7.2252699E-03   12.92190       2.371287    
  7.2252699E-03  7.4081798E-03   13.11320       2.361474    
  7.4081798E-03  7.5957198E-03   12.42283       2.494678    
  7.5957198E-03  7.7880099E-03   12.05150       2.432848    
  7.7880099E-03  7.9851598E-03   12.03592       2.427829    
  7.9851598E-03  8.1873098E-03   11.22628       2.447708    
  8.1873098E-03  8.3945701E-03   11.18356       2.535724    
  8.3945701E-03  8.6070802E-03   10.28152       2.425378    
  8.6070802E-03  8.8249696E-03   9.621050       2.601690    
  8.8249696E-03  9.0483697E-03   10.13925       2.542523    
  9.0483697E-03  9.2774397E-03   9.970102       2.423331    
  9.2774397E-03  9.5122904E-03   9.203508       2.461851    
  9.5122904E-03  9.7530996E-03   8.789814       2.598562    
  9.7530996E-03  9.9999998E-03   8.550609       2.521940    
  9.9999998E-03  1.0253200E-02   8.362200       2.593538    
  1.0253200E-02  1.0512700E-02   8.308756       2.680954    
  1.0512700E-02  1.0778800E-02   7.807416       2.593198    
  1.0778800E-02  1.1051700E-02   7.775181       2.581301    
  1.1051700E-02  1.1331500E-02   7.184504       2.809345    
  1.1331500E-02  1.1618300E-02   7.026900       2.668427    
  1.1618300E-02  1.1912500E-02   6.658353       2.795538    
  1.1912500E-02  1.2214000E-02   6.651467       2.655068    
  1.2214000E-02  1.2523200E-02   6.776679       2.642221    
  1.2523200E-02  1.2840200E-02   6.422139       2.629323    
  1.2840200E-02  1.3165300E-02   6.361039       2.603412    
  1.3165300E-02  1.3498600E-02   6.174317       2.696193    
  1.3498600E-02  1.3840300E-02   5.927644       2.667082    
  1.3840300E-02  1.4190700E-02   5.548038       2.680227    
  1.4190700E-02  1.4549900E-02   5.422668       2.702662    
  1.4549900E-02  1.4918300E-02   5.308773       2.784529    
  1.4918300E-02  1.5295900E-02   4.983120       2.835829    
  1.5295900E-02  1.5683100E-02   4.988922       2.691690    
  1.5683100E-02  1.6080100E-02   4.760495       2.735945    
  1.6080100E-02  1.6487200E-02   4.663300       2.833532    
  1.6487200E-02  1.6904600E-02   4.663799       2.804001    
  1.6904600E-02  1.7332500E-02   4.262219       2.881618    
  1.7332500E-02  1.7771300E-02   3.939780       2.989228    
  1.7771300E-02  1.8221200E-02   3.940403       2.909351    
  1.8221200E-02  1.8682500E-02   3.924545       2.840190    
  1.8682500E-02  1.9155400E-02   3.875158       2.932572    
  1.9155400E-02  1.9640300E-02   3.541517       2.994901    
  1.9640300E-02  2.0000000E-02   3.488567       3.569635    
