 # Detector n:  1  HeIInflux 
 # N. of energy intervals 260
  1.0000100E-14  2.0000000E-13  3.4551165E+10   10.91746    
  2.0000000E-13  2.9297300E-13  6.8026184E+10   9.140460    
  2.9297300E-13  4.2916701E-13  1.1052306E+11   8.068868    
  4.2916701E-13  6.2867300E-13  1.3792384E+11   6.627869    
  6.2867300E-13  9.2092198E-13  2.0566471E+11   4.385954    
  9.2092198E-13  1.3490300E-12  2.9120541E+11   2.670414    
  1.3490300E-12  1.9761499E-12  3.9394650E+11   2.946475    
  1.9761499E-12  2.8947901E-12  4.8503656E+11   2.759281    
  2.8947901E-12  4.2404799E-12  6.3340105E+11   2.722219    
  4.2404799E-12  6.2117499E-12  7.1437727E+11   2.404966    
  6.2117499E-12  9.0993801E-12  7.3038456E+11   2.411677    
  9.0993801E-12  1.3329400E-11  6.6335198E+11   2.286714    
  1.3329400E-11  1.9525799E-11  5.0775389E+11   1.827279    
  1.9525799E-11  2.8602700E-11  3.1913981E+11   2.283153    
  2.8602700E-11  4.1899099E-11  1.5308695E+11   2.242863    
  4.1899099E-11  6.1376598E-11  6.5602183E+10   1.972349    
  6.1376598E-11  8.9908601E-11  3.0447802E+10   1.626067    
  8.9908601E-11  1.3170399E-10  1.5319482E+10   1.746223    
  1.3170399E-10  1.9292901E-10  8.5648087E+09   1.345834    
  1.9292901E-10  2.8261499E-10  5.2709719E+09   1.135353    
  2.8261499E-10  4.1399401E-10  3.4407299E+09  0.9047784    
  4.1399401E-10  5.3157900E-10  2.5143775E+09   1.080084    
  5.3157900E-10  6.2506200E-10  2.0342836E+09   1.016512    
  6.2506200E-10  6.8256001E-10  1.7987862E+09   1.440840    
  6.8256001E-10  8.3368101E-10  1.5511994E+09   1.117141    
  8.3368101E-10  8.7642499E-10  1.3423480E+09   1.122583    
  8.7642499E-10  1.1253500E-09  1.1746584E+09   1.072449    
  1.1253500E-09  1.4449800E-09  9.1451347E+08   1.187918    
  1.4449800E-09  1.8553900E-09  7.1461824E+08  0.9252325    
  1.8553900E-09  2.3823701E-09  5.5548122E+08   1.021204    
  2.3823701E-09  3.0590199E-09  4.3702675E+08   1.302579    
  3.0590199E-09  3.9278598E-09  3.3521526E+08  0.9735416    
  3.9278598E-09  5.0434799E-09  2.6544390E+08   1.165194    
  5.0434799E-09  6.4759500E-09  2.0609731E+08   1.304142    
  6.4759500E-09  8.3152898E-09  1.6214037E+08   1.268499    
  8.3152898E-09  1.0677000E-08  1.2677706E+08   1.371552    
  1.0677000E-08  1.3709600E-08  9.8286168E+07   1.259685    
  1.3709600E-08  1.7603501E-08  7.7804992E+07   1.342234    
  1.7603501E-08  2.2603301E-08  6.0420468E+07   1.466757    
  2.2603301E-08  2.9023200E-08  4.7263376E+07   1.386425    
  2.9023200E-08  3.7266499E-08  3.7312120E+07   1.399904    
  3.7266499E-08  4.7851199E-08  2.8946134E+07   1.545264    
  4.7851199E-08  6.1442101E-08  2.2704742E+07   1.416890    
  6.1442101E-08  7.8893301E-08  1.7729160E+07   1.625656    
  7.8893301E-08  1.0130100E-07  1.3753720E+07   1.535419    
  1.0130100E-07  1.3007300E-07  1.0805668E+07   1.726027    
  1.3007300E-07  1.6701701E-07   8339682.       1.707165    
  1.6701701E-07  2.1445400E-07   6579750.       1.687471    
  2.1445400E-07  2.7536399E-07   5106296.       1.957540    
  2.7536399E-07  3.5357499E-07   3899400.       2.164561    
  3.5357499E-07  4.5399901E-07   3058520.       1.904000    
  4.5399901E-07  5.8294700E-07   2376824.       2.003066    
  5.8294700E-07  7.4851800E-07   1839605.       2.005777    
  7.4851800E-07  9.6111603E-07   1420560.       2.140322    
  9.6111603E-07  1.2341000E-06   1112916.       2.255775    
  1.2341000E-06  1.3638900E-06   915244.5       2.295108    
  1.3638900E-06  1.5073300E-06   827751.7       2.405117    
  1.5073300E-06  1.5846100E-06   766325.4       2.329679    
  1.5846100E-06  1.6658601E-06   735312.1       2.813504    
  1.6658601E-06  1.8410600E-06   671848.9       2.433544    
  1.8410600E-06  2.0346799E-06   601965.9       2.403731    
  2.0346799E-06  2.2486699E-06   550176.2       2.618046    
  2.2486699E-06  2.4851699E-06   486920.4       2.249545    
  2.4851699E-06  2.6125899E-06   455686.2       2.855552    
  2.6125899E-06  2.7465401E-06   426807.7       2.677722    
  2.7465401E-06  2.8634900E-06   410397.9       3.211303    
  2.8634900E-06  3.0353899E-06   394665.6       2.468595    
  3.0353899E-06  3.3546301E-06   360255.6       2.923467    
  3.3546301E-06  3.7074401E-06   330626.6       2.674144    
  3.7074401E-06  4.0973500E-06   288328.6       2.878798    
  4.0973500E-06  4.3074201E-06   266475.0       2.979351    
  4.3074201E-06  4.5282700E-06   256377.2       2.964256    
  4.5282700E-06  5.0045101E-06   236858.5       2.540947    
  5.0045101E-06  5.5308401E-06   235079.9       2.858693    
  5.5308401E-06  6.2672698E-06   163627.3       2.748154    
  6.2672698E-06  7.1017398E-06   165921.9       3.084474    
  7.1017398E-06  8.0473301E-06   144061.4       3.152784    
  8.0473301E-06  9.1188203E-06   125644.7       3.132874    
  9.1188203E-06  1.0333000E-05   111737.9       3.260359    
  1.0333000E-05  1.1708800E-05   94749.28       3.720391    
  1.1708800E-05  1.3267800E-05   83663.53       3.644891    
  1.3267800E-05  1.5034400E-05   74035.84       3.057228    
  1.5034400E-05  1.7036200E-05   62534.41       3.740290    
  1.7036200E-05  1.9304500E-05   54809.57       3.712534    
  1.9304500E-05  2.1334799E-05   48099.12       4.088707    
  2.1334799E-05  2.1874899E-05   44803.78       4.173539    
  2.1874899E-05  2.3578599E-05   42095.68       3.945401    
  2.3578599E-05  2.4175501E-05   41004.29       3.824207    
  2.4175501E-05  2.4787500E-05   38546.46       3.811231    
  2.4787500E-05  2.6058400E-05   37933.43       4.139405    
  2.6058400E-05  2.8087899E-05   37288.32       3.647609    
  2.8087899E-05  3.1827800E-05   40440.86       4.193191    
  3.1827800E-05  3.4306700E-05   26370.41       4.021222    
  3.4306700E-05  3.5175199E-05   13559.64       3.582406    
  3.5175199E-05  3.6065601E-05   12428.42       4.870027    
  3.6065601E-05  4.0867701E-05   16633.14       4.527724    
  4.0867701E-05  4.6309200E-05   18432.99       4.430152    
  4.6309200E-05  5.2475199E-05   16883.50       4.521640    
  5.2475199E-05  5.6562199E-05   15309.41       4.636317    
  5.6562199E-05  5.9462200E-05   14066.94       4.567078    
  5.9462200E-05  6.2510902E-05   13200.67       5.122242    
  6.2510902E-05  6.7379500E-05   12993.51       4.877843    
  6.7379500E-05  7.6350902E-05   12509.53       4.532606    
  7.6350902E-05  8.6516899E-05   9566.352       5.044475    
  8.6516899E-05  9.8036500E-05   5348.123       5.672568    
  9.8036500E-05  1.1109000E-04   6541.465       4.733609    
  1.1109000E-04  1.1678600E-04   6233.282       4.827213    
  1.1678600E-04  1.2277300E-04   4404.539       5.082725    
  1.2277300E-04  1.2906799E-04   6284.209       4.937098    
  1.2906799E-04  1.3568600E-04   6331.289       5.108768    
  1.3568600E-04  1.4264201E-04   4810.928       5.487110    
  1.4264201E-04  1.4995600E-04   3593.714       5.637409    
  1.4995600E-04  1.5764400E-04   3376.496       5.170424    
  1.5764400E-04  1.6163501E-04   2597.509       4.713399    
  1.6163501E-04  1.6572700E-04   3235.686       6.423369    
  1.6572700E-04  1.6992200E-04   3274.271       6.417657    
  1.6992200E-04  1.7422400E-04   3337.313       5.797953    
  1.7422400E-04  1.8315599E-04   3494.198       5.396311    
  1.8315599E-04  1.9254700E-04   3490.811       5.321288    
  1.9254700E-04  2.0241900E-04   3131.882       6.109350    
  2.0241900E-04  2.1279699E-04   2397.849       5.351271    
  2.1279699E-04  2.2370800E-04   2444.125       6.056434    
  2.2370800E-04  2.3517800E-04   2415.130       5.124020    
  2.3517800E-04  2.4723500E-04   2352.408       6.294140    
  2.4723500E-04  2.5991100E-04   2402.724       5.875584    
  2.5991100E-04  2.7323700E-04   2458.513       5.077024    
  2.7323700E-04  2.8015400E-04   2180.375       6.015786    
  2.8015400E-04  2.8724599E-04   1735.745       6.689502    
  2.8724599E-04  2.9451799E-04   1749.808       6.368185    
  2.9451799E-04  3.0197401E-04   1724.551       7.020679    
  3.0197401E-04  3.0961799E-04   1627.247       6.700089    
  3.0961799E-04  3.1745600E-04   1530.330       6.773735    
  3.1745600E-04  3.3373301E-04   1566.531       5.978169    
  3.3373301E-04  3.5084400E-04   1632.079       5.291133    
  3.5084400E-04  3.6883200E-04   1399.953       4.675477    
  3.6883200E-04  3.8774201E-04   1262.652       6.066718    
  3.8774201E-04  4.0762199E-04   1320.063       6.495577    
  4.0762199E-04  4.2852099E-04   1045.997       6.504653    
  4.2852099E-04  4.5049199E-04   987.2631       6.208189    
  4.5049199E-04  4.7358900E-04   959.8170       5.831834    
  4.7358900E-04  4.9787102E-04   897.4812       6.194055    
  4.9787102E-04  5.1047403E-04   919.9904       6.297850    
  5.1047403E-04  5.2339700E-04   847.3845       6.104639    
  5.2339700E-04  5.3664698E-04   671.2842       5.014450    
  5.3664698E-04  5.5023201E-04   714.0287       5.751141    
  5.5023201E-04  5.7844300E-04   663.7717       4.980607    
  5.7844300E-04  6.0810102E-04   640.1826       5.608059    
  6.0810102E-04  6.3927902E-04   535.5005       5.765699    
  6.3927902E-04  6.7205500E-04   461.0802       6.385864    
  6.7205500E-04  7.0651202E-04   485.3649       5.696980    
  7.0651202E-04  7.4273598E-04   434.6703       5.530295    
  7.4273598E-04  7.8081700E-04   367.3816       5.613524    
  7.8081700E-04  8.2085002E-04   304.1171       5.851038    
  8.2085002E-04  8.6293602E-04   255.9866       5.113743    
  8.6293602E-04  9.0717903E-04   253.9724       5.802534    
  9.0717903E-04  9.5369201E-04   231.4594       5.407781    
  9.5369201E-04  9.6163998E-04   211.5216       6.876137    
  9.6163998E-04  9.7783399E-04   202.5382       5.381268    
  9.7783399E-04  1.0025901E-03   195.4191       6.405715    
  1.0025901E-03  1.0539900E-03   174.1477       6.077847    
  1.0539900E-03  1.1080300E-03   174.8190       5.199669    
  1.1080300E-03  1.1648400E-03   150.0522       4.250233    
  1.1648400E-03  1.1943300E-03   133.6367       5.824582    
  1.1943300E-03  1.2245600E-03   143.1831       6.392441    
  1.2245600E-03  1.2873500E-03   132.1272       3.971641    
  1.2873500E-03  1.3533500E-03   121.8596       5.014149    
  1.3533500E-03  1.4227401E-03   119.6725       4.486807    
  1.4227401E-03  1.4956900E-03   108.9625       4.718213    
  1.4956900E-03  1.5335500E-03   107.7645       4.576837    
  1.5335500E-03  1.5723699E-03   109.5616       5.539892    
  1.5723699E-03  1.6121800E-03   108.0557       4.652544    
  1.6121800E-03  1.6529900E-03   101.3619       4.063515    
  1.6529900E-03  1.7377400E-03   90.47775       4.305688    
  1.7377400E-03  1.8268300E-03   84.56001       3.656479    
  1.8268300E-03  1.8730800E-03   85.98083       5.248634    
  1.8730800E-03  1.9205000E-03   74.34515       4.209319    
  1.9205000E-03  1.9691200E-03   75.90381       5.659867    
  1.9691200E-03  2.0189700E-03   73.41790       3.318084    
  2.0189700E-03  2.1224800E-03   64.89951       3.410718    
  2.1224800E-03  2.2313001E-03   62.23392       2.665146    
  2.2313001E-03  2.2688799E-03   59.10838       4.014843    
  2.2688799E-03  2.3068599E-03   51.35740       5.565357    
  2.3068599E-03  2.3457000E-03   52.77675       6.595663    
  2.3457000E-03  2.3652499E-03   48.96233       7.694088    
  2.3652499E-03  2.3852000E-03   58.27714       6.412251    
  2.3852000E-03  2.4251300E-03   45.56677       5.750851    
  2.4251300E-03  2.4659701E-03   49.92574       6.500474    
  2.4659701E-03  2.5923999E-03   40.53183       4.401949    
  2.5923999E-03  2.7253199E-03   36.43475       3.123753    
  2.7253199E-03  2.8650500E-03   32.78497       3.164353    
  2.8650500E-03  3.0119400E-03   29.65409       3.217182    
  3.0119400E-03  3.0881900E-03   25.61927       6.016932    
  3.0881900E-03  3.1663701E-03   27.79606       7.504380    
  3.1663701E-03  3.2465300E-03   26.00553       5.262481    
  3.2465300E-03  3.3287101E-03   23.31836       3.693805    
  3.3287101E-03  3.4993801E-03   20.94865       4.105368    
  3.4993801E-03  3.6787901E-03   20.14358       3.059223    
  3.6787901E-03  3.8674099E-03   19.11012       3.605711    
  3.8674099E-03  4.0656999E-03   16.44058       4.005736    
  4.0656999E-03  4.2741499E-03   15.40290       4.969790    
  4.2741499E-03  4.4932901E-03   14.47481       5.450035    
  4.4932901E-03  4.6070400E-03   12.94107       6.206651    
  4.6070400E-03  4.7236700E-03   13.27466       6.134805    
  4.7236700E-03  4.8432499E-03   11.84975       6.922475    
  4.8432499E-03  4.9658502E-03   10.80728       4.881338    
  4.9658502E-03  5.2204598E-03   11.76344       4.627200    
  5.2204598E-03  5.4881200E-03   9.960340       5.828537    
  5.4881200E-03  5.7695000E-03   9.610007       3.513082    
  5.7695000E-03  5.9155500E-03   9.402734       7.042074    
  5.9155500E-03  6.0653100E-03   9.093593       7.807344    
  6.0653100E-03  6.2188501E-03   8.860423       4.917796    
  6.2188501E-03  6.3762800E-03   8.961839       6.207059    
  6.3762800E-03  6.5377001E-03   8.083961       6.969407    
  6.5377001E-03  6.5923799E-03   9.048847       12.09192    
  6.5923799E-03  6.6475999E-03   5.876133       15.81774    
  6.6475999E-03  6.7031998E-03   8.076505       13.90193    
  6.7031998E-03  6.8728901E-03   7.199775       9.654132    
  6.8728901E-03  7.0468802E-03   7.056371       7.599681    
  7.0468802E-03  7.2252699E-03   6.982997       10.21599    
  7.2252699E-03  7.4081798E-03   6.670405       9.193580    
  7.4081798E-03  7.5957198E-03   6.403105       8.845908    
  7.5957198E-03  7.7880099E-03   5.222707       7.855090    
  7.7880099E-03  7.9851598E-03   6.467103       8.041543    
  7.9851598E-03  8.1873098E-03   5.658061       9.087581    
  8.1873098E-03  8.3945701E-03   6.483232       8.021349    
  8.3945701E-03  8.6070802E-03   5.841762       6.710002    
  8.6070802E-03  8.8249696E-03   4.978552       9.327921    
  8.8249696E-03  9.0483697E-03   4.553301       9.139679    
  9.0483697E-03  9.2774397E-03   5.182637       6.752692    
  9.2774397E-03  9.5122904E-03   4.267076       9.038013    
  9.5122904E-03  9.7530996E-03   4.906316       7.228953    
  9.7530996E-03  9.9999998E-03   4.142659       7.355397    
  9.9999998E-03  1.0253200E-02   3.905409       8.398350    
  1.0253200E-02  1.0512700E-02   4.071960       5.752622    
  1.0512700E-02  1.0778800E-02   4.369273       9.116181    
  1.0778800E-02  1.1051700E-02   3.794821       9.656968    
  1.1051700E-02  1.1331500E-02   4.102196       7.682789    
  1.1331500E-02  1.1618300E-02   3.745040       11.14682    
  1.1618300E-02  1.1912500E-02   2.849573       9.815575    
  1.1912500E-02  1.2214000E-02   3.651415       6.220781    
  1.2214000E-02  1.2523200E-02   2.330222       10.53228    
  1.2523200E-02  1.2840200E-02   3.118889       11.25031    
  1.2840200E-02  1.3165300E-02   3.350797       7.259100    
  1.3165300E-02  1.3498600E-02   2.944446       6.325943    
  1.3498600E-02  1.3840300E-02   2.854724       8.047513    
  1.3840300E-02  1.4190700E-02   2.228675       9.881748    
  1.4190700E-02  1.4549900E-02   2.840105       7.995070    
  1.4549900E-02  1.4918300E-02   2.508519       9.550464    
  1.4918300E-02  1.5295900E-02   2.196310       8.103341    
  1.5295900E-02  1.5683100E-02   2.463197       8.424735    
  1.5683100E-02  1.6080100E-02   2.116384       10.13111    
  1.6080100E-02  1.6487200E-02   1.961838       9.326132    
  1.6487200E-02  1.6904600E-02   2.180895       10.70716    
  1.6904600E-02  1.7332500E-02   1.893251       10.21982    
  1.7332500E-02  1.7771300E-02   1.970802       9.932597    
  1.7771300E-02  1.8221200E-02   1.726408       10.60191    
  1.8221200E-02  1.8682500E-02   1.660887       10.19430    
  1.8682500E-02  1.9155400E-02   1.685952       9.028846    
  1.9155400E-02  1.9640300E-02   1.358100       11.06207    
  1.9640300E-02  2.0000000E-02   1.284922       14.40320    
