 # Detector n:  1  HeIInflux 
 # N. of energy intervals 260
  1.0000100E-14  2.0000000E-13  3.2898456E+10   17.54424    
  2.0000000E-13  2.9297300E-13  5.3872980E+10   24.54392    
  2.9297300E-13  4.2916701E-13  1.0369030E+11   12.65726    
  4.2916701E-13  6.2867300E-13  1.4166956E+11   10.64797    
  6.2867300E-13  9.2092198E-13  2.0914451E+11   4.590158    
  9.2092198E-13  1.3490300E-12  2.6618436E+11   3.421686    
  1.3490300E-12  1.9761499E-12  3.3271005E+11   3.939235    
  1.9761499E-12  2.8947901E-12  4.3945964E+11   2.536706    
  2.8947901E-12  4.2404799E-12  5.5414692E+11   2.031363    
  4.2404799E-12  6.2117499E-12  6.0808122E+11   1.099437    
  6.2117499E-12  9.0993801E-12  6.3930506E+11   1.030950    
  9.0993801E-12  1.3329400E-11  5.8582499E+11   1.004901    
  1.3329400E-11  1.9525799E-11  4.4086900E+11  0.7844054    
  1.9525799E-11  2.8602700E-11  2.7003598E+11  0.9311938    
  2.8602700E-11  4.1899099E-11  1.2918577E+11   1.598704    
  4.1899099E-11  6.1376598E-11  5.2468257E+10   1.455835    
  6.1376598E-11  8.9908601E-11  2.4230908E+10   1.374582    
  8.9908601E-11  1.3170399E-10  1.3122634E+10   1.911914    
  1.3170399E-10  1.9292901E-10  7.4206638E+09   1.283434    
  1.9292901E-10  2.8261499E-10  4.6848328E+09   1.106334    
  2.8261499E-10  4.1399401E-10  3.1111114E+09  0.8491055    
  4.1399401E-10  5.3157900E-10  2.2709906E+09  0.8657855    
  5.3157900E-10  6.2506200E-10  1.8291740E+09   1.588652    
  6.2506200E-10  6.8256001E-10  1.6311322E+09   1.161010    
  6.8256001E-10  8.3368101E-10  1.4191997E+09  0.9399921    
  8.3368101E-10  8.7642499E-10  1.2319144E+09   2.549149    
  8.7642499E-10  1.1253500E-09  1.0491338E+09   1.220800    
  1.1253500E-09  1.4449800E-09  8.0250202E+08   1.204816    
  1.4449800E-09  1.8553900E-09  6.4332851E+08  0.6908365    
  1.8553900E-09  2.3823701E-09  4.9525498E+08  0.7714297    
  2.3823701E-09  3.0590199E-09  3.8569222E+08   1.343596    
  3.0590199E-09  3.9278598E-09  3.0132128E+08  0.7329066    
  3.9278598E-09  5.0434799E-09  2.3944584E+08  0.6777906    
  5.0434799E-09  6.4759500E-09  1.8348710E+08  0.9022740    
  6.4759500E-09  8.3152898E-09  1.4406914E+08  0.8786587    
  8.3152898E-09  1.0677000E-08  1.1487826E+08  0.9422246    
  1.0677000E-08  1.3709600E-08  8.9698528E+07   1.145543    
  1.3709600E-08  1.7603501E-08  6.8986280E+07  0.8335959    
  1.7603501E-08  2.2603301E-08  5.4886820E+07  0.9083512    
  2.2603301E-08  2.9023200E-08  4.2601952E+07  0.8136374    
  2.9023200E-08  3.7266499E-08  3.2917152E+07  0.6818708    
  3.7266499E-08  4.7851199E-08  2.5681772E+07  0.9672976    
  4.7851199E-08  6.1442101E-08  2.0088858E+07  0.7257061    
  6.1442101E-08  7.8893301E-08  1.5627475E+07   1.057321    
  7.8893301E-08  1.0130100E-07  1.2010343E+07  0.9302330    
  1.0130100E-07  1.3007300E-07   9533940.       1.078738    
  1.3007300E-07  1.6701701E-07   7339256.      0.6911502    
  1.6701701E-07  2.1445400E-07   5656194.       1.048150    
  2.1445400E-07  2.7536399E-07   4457843.      0.7340332    
  2.7536399E-07  3.5357499E-07   3410002.      0.6605191    
  3.5357499E-07  4.5399901E-07   2710744.      0.8099077    
  4.5399901E-07  5.8294700E-07   2054200.      0.5290908    
  5.8294700E-07  7.4851800E-07   1599987.      0.7447033    
  7.4851800E-07  9.6111603E-07   1229602.      0.7961130    
  9.6111603E-07  1.2341000E-06   948616.6      0.7238365    
  1.2341000E-06  1.3638900E-06   784654.8       1.118438    
  1.3638900E-06  1.5073300E-06   716445.1       1.493232    
  1.5073300E-06  1.5846100E-06   643568.8       2.488146    
  1.5846100E-06  1.6658601E-06   624358.6       1.466546    
  1.6658601E-06  1.8410600E-06   563338.2       1.172115    
  1.8410600E-06  2.0346799E-06   509623.6       1.276244    
  2.0346799E-06  2.2486699E-06   459762.9       1.186919    
  2.2486699E-06  2.4851699E-06   411497.2       1.510538    
  2.4851699E-06  2.6125899E-06   381047.4       1.884025    
  2.6125899E-06  2.7465401E-06   374365.4       1.839567    
  2.7465401E-06  2.8634900E-06   342752.2       2.389400    
  2.8634900E-06  3.0353899E-06   324480.0       1.807805    
  3.0353899E-06  3.3546301E-06   301561.9      0.7439090    
  3.3546301E-06  3.7074401E-06   274599.2       1.554742    
  3.7074401E-06  4.0973500E-06   241958.5       1.576916    
  4.0973500E-06  4.3074201E-06   224051.3       1.800341    
  4.3074201E-06  4.5282700E-06   211226.3       2.106071    
  4.5282700E-06  5.0045101E-06   198697.9       1.654745    
  5.0045101E-06  5.5308401E-06   193814.1       1.338798    
  5.5308401E-06  6.2672698E-06   135032.5       1.332521    
  6.2672698E-06  7.1017398E-06   134861.1       1.262587    
  7.1017398E-06  8.0473301E-06   118282.4       1.144979    
  8.0473301E-06  9.1188203E-06   104664.9       1.374757    
  9.1188203E-06  1.0333000E-05   91435.25       1.050643    
  1.0333000E-05  1.1708800E-05   79866.60       1.338476    
  1.1708800E-05  1.3267800E-05   67715.68       1.438248    
  1.3267800E-05  1.5034400E-05   59448.82       1.427874    
  1.5034400E-05  1.7036200E-05   50945.96       1.136535    
  1.7036200E-05  1.9304500E-05   45979.32      0.9960131    
  1.9304500E-05  2.1334799E-05   38766.35       1.691896    
  2.1334799E-05  2.1874899E-05   35295.32       2.540266    
  2.1874899E-05  2.3578599E-05   33580.83       1.510829    
  2.3578599E-05  2.4175501E-05   33432.37       2.641589    
  2.4175501E-05  2.4787500E-05   31518.50       3.757277    
  2.4787500E-05  2.6058400E-05   31548.34       1.574464    
  2.6058400E-05  2.8087899E-05   28963.52       1.747933    
  2.8087899E-05  3.1827800E-05   31270.23      0.9906323    
  3.1827800E-05  3.4306700E-05   20464.06       1.099868    
  3.4306700E-05  3.5175199E-05   10664.09       5.364342    
  3.5175199E-05  3.6065601E-05   9605.291       3.948162    
  3.6065601E-05  4.0867701E-05   12701.64       2.143502    
  4.0867701E-05  4.6309200E-05   14494.51       1.386564    
  4.6309200E-05  5.2475199E-05   12914.60       1.737673    
  5.2475199E-05  5.6562199E-05   11756.98       2.133766    
  5.6562199E-05  5.9462200E-05   10837.04       2.126102    
  5.9462200E-05  6.2510902E-05   10232.26       1.980578    
  6.2510902E-05  6.7379500E-05   9593.923       1.594685    
  6.7379500E-05  7.6350902E-05   9747.203       1.437426    
  7.6350902E-05  8.6516899E-05   7006.850       1.322562    
  8.6516899E-05  9.8036500E-05   4175.287       1.881693    
  9.8036500E-05  1.1109000E-04   4785.758       2.039645    
  1.1109000E-04  1.1678600E-04   4581.862       2.762220    
  1.1678600E-04  1.2277300E-04   3347.797       2.408129    
  1.2277300E-04  1.2906799E-04   4866.801       2.103538    
  1.2906799E-04  1.3568600E-04   4663.093       2.960707    
  1.3568600E-04  1.4264201E-04   3516.104       1.822817    
  1.4264201E-04  1.4995600E-04   2541.443       2.764386    
  1.4995600E-04  1.5764400E-04   2429.676       3.019965    
  1.5764400E-04  1.6163501E-04   1930.856       5.098637    
  1.6163501E-04  1.6572700E-04   2298.616       4.528282    
  1.6572700E-04  1.6992200E-04   2608.217       2.928122    
  1.6992200E-04  1.7422400E-04   2254.105       3.004604    
  1.7422400E-04  1.8315599E-04   2533.690       2.049502    
  1.8315599E-04  1.9254700E-04   2551.545       2.627757    
  1.9254700E-04  2.0241900E-04   2336.749       3.714973    
  2.0241900E-04  2.1279699E-04   1789.789       1.767215    
  2.1279699E-04  2.2370800E-04   1798.820       3.913759    
  2.2370800E-04  2.3517800E-04   1775.267       2.045565    
  2.3517800E-04  2.4723500E-04   1726.181       2.246600    
  2.4723500E-04  2.5991100E-04   1739.747       2.680164    
  2.5991100E-04  2.7323700E-04   1815.909       2.298594    
  2.7323700E-04  2.8015400E-04   1562.307       3.246104    
  2.8015400E-04  2.8724599E-04   1218.969       2.918268    
  2.8724599E-04  2.9451799E-04   1132.251       4.621625    
  2.9451799E-04  3.0197401E-04   1212.001       4.800791    
  3.0197401E-04  3.0961799E-04   1298.539       4.672234    
  3.0961799E-04  3.1745600E-04   1109.736       4.727216    
  3.1745600E-04  3.3373301E-04   1166.486       2.724144    
  3.3373301E-04  3.5084400E-04   1186.618       2.639149    
  3.5084400E-04  3.6883200E-04   974.4563       3.232381    
  3.6883200E-04  3.8774201E-04   900.5374       2.738021    
  3.8774201E-04  4.0762199E-04   891.2216       3.554479    
  4.0762199E-04  4.2852099E-04   750.6526       3.341713    
  4.2852099E-04  4.5049199E-04   676.6219       4.143499    
  4.5049199E-04  4.7358900E-04   671.2252       2.833386    
  4.7358900E-04  4.9787102E-04   644.0676       2.842288    
  4.9787102E-04  5.1047403E-04   632.3818       3.800297    
  5.1047403E-04  5.2339700E-04   639.7831       4.115329    
  5.2339700E-04  5.3664698E-04   521.1312       4.595271    
  5.3664698E-04  5.5023201E-04   523.0510       4.557514    
  5.5023201E-04  5.7844300E-04   482.2085       3.582017    
  5.7844300E-04  6.0810102E-04   459.5773       3.095912    
  6.0810102E-04  6.3927902E-04   407.8680       2.699630    
  6.3927902E-04  6.7205500E-04   340.1057       4.454820    
  6.7205500E-04  7.0651202E-04   347.9473       4.534286    
  7.0651202E-04  7.4273598E-04   304.0515       3.129236    
  7.4273598E-04  7.8081700E-04   272.2888       3.405549    
  7.8081700E-04  8.2085002E-04   211.1989       4.804049    
  8.2085002E-04  8.6293602E-04   195.4891       4.120671    
  8.6293602E-04  9.0717903E-04   165.0001       4.457877    
  9.0717903E-04  9.5369201E-04   166.0787       2.754959    
  9.5369201E-04  9.6163998E-04   161.6619       10.73327    
  9.6163998E-04  9.7783399E-04   154.9225       7.409302    
  9.7783399E-04  1.0025901E-03   143.7235       4.744590    
  1.0025901E-03  1.0539900E-03   134.2512       3.403519    
  1.0539900E-03  1.1080300E-03   132.9424       4.731907    
  1.1080300E-03  1.1648400E-03   110.1588       4.453405    
  1.1648400E-03  1.1943300E-03   100.6720       4.865146    
  1.1943300E-03  1.2245600E-03   114.1119       7.136819    
  1.2245600E-03  1.2873500E-03   103.5641       4.558874    
  1.2873500E-03  1.3533500E-03   94.07555       4.536187    
  1.3533500E-03  1.4227401E-03   102.8720       7.177607    
  1.4227401E-03  1.4956900E-03   84.98560       3.298590    
  1.4956900E-03  1.5335500E-03   91.33291       6.786408    
  1.5335500E-03  1.5723699E-03   86.29879       5.033944    
  1.5723699E-03  1.6121800E-03   80.30960       5.096997    
  1.6121800E-03  1.6529900E-03   83.30331       6.817504    
  1.6529900E-03  1.7377400E-03   79.94473       5.826231    
  1.7377400E-03  1.8268300E-03   70.44302       4.358536    
  1.8268300E-03  1.8730800E-03   69.42521       5.284470    
  1.8730800E-03  1.9205000E-03   65.76703       7.935060    
  1.9205000E-03  1.9691200E-03   64.03228       3.670598    
  1.9691200E-03  2.0189700E-03   63.96709       7.169434    
  2.0189700E-03  2.1224800E-03   54.53146       5.748871    
  2.1224800E-03  2.2313001E-03   57.12102       6.056744    
  2.2313001E-03  2.2688799E-03   44.42279       9.482933    
  2.2688799E-03  2.3068599E-03   45.02737       5.896623    
  2.3068599E-03  2.3457000E-03   50.14200       10.14877    
  2.3457000E-03  2.3652499E-03   48.59639       10.28574    
  2.3652499E-03  2.3852000E-03   56.64363       9.067116    
  2.3852000E-03  2.4251300E-03   47.77560       9.338424    
  2.4251300E-03  2.4659701E-03   42.07969       8.359152    
  2.4659701E-03  2.5923999E-03   38.29325       4.908363    
  2.5923999E-03  2.7253199E-03   36.09375       5.020228    
  2.7253199E-03  2.8650500E-03   32.13540       5.757087    
  2.8650500E-03  3.0119400E-03   26.89434       5.496152    
  3.0119400E-03  3.0881900E-03   24.37935       11.98865    
  3.0881900E-03  3.1663701E-03   22.71929       8.293232    
  3.1663701E-03  3.2465300E-03   26.91125       6.452276    
  3.2465300E-03  3.3287101E-03   23.39806       7.053195    
  3.3287101E-03  3.4993801E-03   21.65047       6.920738    
  3.4993801E-03  3.6787901E-03   21.19220       6.886685    
  3.6787901E-03  3.8674099E-03   17.89364       7.258021    
  3.8674099E-03  4.0656999E-03   16.96465       5.985235    
  4.0656999E-03  4.2741499E-03   15.24824       5.454304    
  4.2741499E-03  4.4932901E-03   14.97394       5.210818    
  4.4932901E-03  4.6070400E-03   12.47377       9.198529    
  4.6070400E-03  4.7236700E-03   13.60774       10.42390    
  4.7236700E-03  4.8432499E-03   16.29696       7.948953    
  4.8432499E-03  4.9658502E-03   12.04096       6.564982    
  4.9658502E-03  5.2204598E-03   12.46779       6.940947    
  5.2204598E-03  5.4881200E-03   11.26589       8.257615    
  5.4881200E-03  5.7695000E-03   10.14622       8.017859    
  5.7695000E-03  5.9155500E-03   11.48370       12.30935    
  5.9155500E-03  6.0653100E-03   8.989626       9.470078    
  6.0653100E-03  6.2188501E-03   8.993460       6.433696    
  6.2188501E-03  6.3762800E-03   9.679618       9.229041    
  6.3762800E-03  6.5377001E-03   7.525459       11.05341    
  6.5377001E-03  6.5923799E-03   8.106591       17.27412    
  6.5923799E-03  6.6475999E-03   8.330894       7.252104    
  6.6475999E-03  6.7031998E-03   9.074263       13.56354    
  6.7031998E-03  6.8728901E-03   7.298708       6.277094    
  6.8728901E-03  7.0468802E-03   7.196913       11.56102    
  7.0468802E-03  7.2252699E-03   7.010871       9.190247    
  7.2252699E-03  7.4081798E-03   6.447592       10.53881    
  7.4081798E-03  7.5957198E-03   6.499402       10.76988    
  7.5957198E-03  7.7880099E-03   6.294787       6.607862    
  7.7880099E-03  7.9851598E-03   6.909001       12.12635    
  7.9851598E-03  8.1873098E-03   7.100318       9.065833    
  8.1873098E-03  8.3945701E-03   5.626941       6.609458    
  8.3945701E-03  8.6070802E-03   5.710658       12.30739    
  8.6070802E-03  8.8249696E-03   6.107355       9.595654    
  8.8249696E-03  9.0483697E-03   4.372856       8.714460    
  9.0483697E-03  9.2774397E-03   5.008256       13.31256    
  9.2774397E-03  9.5122904E-03   4.963193       10.11672    
  9.5122904E-03  9.7530996E-03   4.321122       12.93542    
  9.7530996E-03  9.9999998E-03   5.135996       8.898938    
  9.9999998E-03  1.0253200E-02   4.603121       11.99011    
  1.0253200E-02  1.0512700E-02   4.044970       13.01292    
  1.0512700E-02  1.0778800E-02   4.234895       10.70821    
  1.0778800E-02  1.1051700E-02   4.139068       14.59249    
  1.1051700E-02  1.1331500E-02   3.604696       12.42529    
  1.1331500E-02  1.1618300E-02   2.987215       15.05793    
  1.1618300E-02  1.1912500E-02   3.577125       13.22063    
  1.1912500E-02  1.2214000E-02   3.547876       13.62911    
  1.2214000E-02  1.2523200E-02   4.015034       10.07700    
  1.2523200E-02  1.2840200E-02   3.499733       10.54436    
  1.2840200E-02  1.3165300E-02   3.132360       11.44777    
  1.3165300E-02  1.3498600E-02   3.437145       11.47920    
  1.3498600E-02  1.3840300E-02   2.879411       17.68621    
  1.3840300E-02  1.4190700E-02   2.405317       13.15840    
  1.4190700E-02  1.4549900E-02   2.543093       15.00629    
  1.4549900E-02  1.4918300E-02   2.740953       14.97943    
  1.4918300E-02  1.5295900E-02   2.322377       10.92260    
  1.5295900E-02  1.5683100E-02   2.348439       10.59628    
  1.5683100E-02  1.6080100E-02   1.921735       15.87907    
  1.6080100E-02  1.6487200E-02   2.502147       10.96182    
  1.6487200E-02  1.6904600E-02   2.118501       12.05786    
  1.6904600E-02  1.7332500E-02   1.987832       8.167014    
  1.7332500E-02  1.7771300E-02   1.875813       10.07211    
  1.7771300E-02  1.8221200E-02   1.973545       9.565188    
  1.8221200E-02  1.8682500E-02   1.854794       13.78930    
  1.8682500E-02  1.9155400E-02   1.998044       9.550635    
  1.9155400E-02  1.9640300E-02   1.947564       10.58155    
  1.9640300E-02  2.0000000E-02   1.506012       20.98531    
