 # Detector n:  1  HeIInflux 
 # N. of energy intervals 260
  1.0000100E-14  2.0000000E-13  3.8898672E+10   18.66205    
  2.0000000E-13  2.9297300E-13  9.8359665E+10   20.40557    
  2.9297300E-13  4.2916701E-13  1.6179524E+11   11.16217    
  4.2916701E-13  6.2867300E-13  2.0978973E+11   6.664688    
  6.2867300E-13  9.2092198E-13  2.6874187E+11   6.745736    
  9.2092198E-13  1.3490300E-12  3.9431179E+11   5.713632    
  1.3490300E-12  1.9761499E-12  5.4219545E+11   3.205763    
  1.9761499E-12  2.8947901E-12  6.6439473E+11   2.410602    
  2.8947901E-12  4.2404799E-12  8.2855526E+11   1.812506    
  4.2404799E-12  6.2117499E-12  9.1362322E+11   1.655632    
  6.2117499E-12  9.0993801E-12  9.5239825E+11   1.039880    
  9.0993801E-12  1.3329400E-11  8.6356735E+11  0.6861450    
  1.3329400E-11  1.9525799E-11  6.6417813E+11   1.094252    
  1.9525799E-11  2.8602700E-11  3.9207888E+11  0.9096556    
  2.8602700E-11  4.1899099E-11  1.8593830E+11   1.068857    
  4.1899099E-11  6.1376598E-11  7.4506732E+10   1.739745    
  6.1376598E-11  8.9908601E-11  3.3348239E+10   1.552095    
  8.9908601E-11  1.3170399E-10  1.6468083E+10   1.176378    
  1.3170399E-10  1.9292901E-10  9.2302234E+09  0.9162928    
  1.9292901E-10  2.8261499E-10  5.7959977E+09   1.054058    
  2.8261499E-10  4.1399401E-10  3.7571062E+09  0.9905756    
  4.1399401E-10  5.3157900E-10  2.7892877E+09   1.056570    
  5.3157900E-10  6.2506200E-10  2.2548457E+09  0.9980756    
  6.2506200E-10  6.8256001E-10  1.9607290E+09   1.363200    
  6.8256001E-10  8.3368101E-10  1.7071383E+09   1.150872    
  8.3368101E-10  8.7642499E-10  1.5318021E+09   1.741530    
  8.7642499E-10  1.1253500E-09  1.2965902E+09   1.093746    
  1.1253500E-09  1.4449800E-09  9.9630336E+08  0.9029180    
  1.4449800E-09  1.8553900E-09  7.7118067E+08  0.8169184    
  1.8553900E-09  2.3823701E-09  6.0656102E+08  0.5884540    
  2.3823701E-09  3.0590199E-09  4.7346534E+08  0.7525694    
  3.0590199E-09  3.9278598E-09  3.6164483E+08  0.8970383    
  3.9278598E-09  5.0434799E-09  2.8321178E+08  0.7752925    
  5.0434799E-09  6.4759500E-09  2.2371488E+08  0.9962748    
  6.4759500E-09  8.3152898E-09  1.7435461E+08  0.6729696    
  8.3152898E-09  1.0677000E-08  1.3513291E+08  0.6735128    
  1.0677000E-08  1.3709600E-08  1.0564030E+08  0.4538217    
  1.3709600E-08  1.7603501E-08  8.3775184E+07  0.8827083    
  1.7603501E-08  2.2603301E-08  6.4679772E+07  0.8128351    
  2.2603301E-08  2.9023200E-08  5.0045204E+07  0.6497429    
  2.9023200E-08  3.7266499E-08  3.8604468E+07  0.9459202    
  3.7266499E-08  4.7851199E-08  3.0333198E+07  0.9005407    
  4.7851199E-08  6.1442101E-08  2.3729486E+07  0.6832072    
  6.1442101E-08  7.8893301E-08  1.8635138E+07   1.051802    
  7.8893301E-08  1.0130100E-07  1.4508292E+07  0.9579237    
  1.0130100E-07  1.3007300E-07  1.1285127E+07  0.6481915    
  1.3007300E-07  1.6701701E-07   8725228.      0.7308159    
  1.6701701E-07  2.1445400E-07   6702548.      0.8632739    
  2.1445400E-07  2.7536399E-07   5207850.      0.9136875    
  2.7536399E-07  3.5357499E-07   4048599.       1.087783    
  3.5357499E-07  4.5399901E-07   3114472.      0.8438222    
  4.5399901E-07  5.8294700E-07   2421532.      0.6056158    
  5.8294700E-07  7.4851800E-07   1852678.       1.053029    
  7.4851800E-07  9.6111603E-07   1445450.      0.9254411    
  9.6111603E-07  1.2341000E-06   1115818.      0.7864192    
  1.2341000E-06  1.3638900E-06   930700.9       1.095447    
  1.3638900E-06  1.5073300E-06   841629.2       1.141510    
  1.5073300E-06  1.5846100E-06   754930.4       2.625026    
  1.5846100E-06  1.6658601E-06   721178.4       1.793133    
  1.6658601E-06  1.8410600E-06   656625.2       1.157102    
  1.8410600E-06  2.0346799E-06   617621.9       1.425029    
  2.0346799E-06  2.2486699E-06   541457.9       1.359677    
  2.2486699E-06  2.4851699E-06   492327.2       1.201102    
  2.4851699E-06  2.6125899E-06   472131.0       2.351353    
  2.6125899E-06  2.7465401E-06   422209.5       1.733824    
  2.7465401E-06  2.8634900E-06   415392.1       1.900724    
  2.8634900E-06  3.0353899E-06   386616.7       1.549595    
  3.0353899E-06  3.3546301E-06   360594.9       1.026084    
  3.3546301E-06  3.7074401E-06   317214.1       1.368713    
  3.7074401E-06  4.0973500E-06   287971.2       1.248509    
  4.0973500E-06  4.3074201E-06   274346.0       1.925190    
  4.3074201E-06  4.5282700E-06   250918.9       1.823993    
  4.5282700E-06  5.0045101E-06   232359.9       1.256110    
  5.0045101E-06  5.5308401E-06   226976.0       1.357749    
  5.5308401E-06  6.2672698E-06   164823.7       1.171944    
  6.2672698E-06  7.1017398E-06   159328.6       1.374234    
  7.1017398E-06  8.0473301E-06   141908.4       1.150374    
  8.0473301E-06  9.1188203E-06   119939.2       1.184898    
  9.1188203E-06  1.0333000E-05   106835.8      0.9640495    
  1.0333000E-05  1.1708800E-05   93837.64       1.569839    
  1.1708800E-05  1.3267800E-05   80560.35       1.150142    
  1.3267800E-05  1.5034400E-05   68893.09       1.095612    
  1.5034400E-05  1.7036200E-05   60443.05      0.8602046    
  1.7036200E-05  1.9304500E-05   51694.98       1.043740    
  1.9304500E-05  2.1334799E-05   46348.88       1.989823    
  2.1334799E-05  2.1874899E-05   40154.20       3.644090    
  2.1874899E-05  2.3578599E-05   40032.41       2.384769    
  2.3578599E-05  2.4175501E-05   37795.02       2.537633    
  2.4175501E-05  2.4787500E-05   37340.04       2.233021    
  2.4787500E-05  2.6058400E-05   35489.24       1.762519    
  2.6058400E-05  2.8087899E-05   35642.28       1.514271    
  2.8087899E-05  3.1827800E-05   37438.18       1.238804    
  3.1827800E-05  3.4306700E-05   25735.37       2.113766    
  3.4306700E-05  3.5175199E-05   13232.46       4.509737    
  3.5175199E-05  3.6065601E-05   11770.22       4.872747    
  3.6065601E-05  4.0867701E-05   15831.41       1.502432    
  4.0867701E-05  4.6309200E-05   16959.74       1.244568    
  4.6309200E-05  5.2475199E-05   15699.55       1.499819    
  5.2475199E-05  5.6562199E-05   14186.97       1.168644    
  5.6562199E-05  5.9462200E-05   13317.67       1.681503    
  5.9462200E-05  6.2510902E-05   12059.95       3.292821    
  6.2510902E-05  6.7379500E-05   12010.51       1.008843    
  6.7379500E-05  7.6350902E-05   11274.97       1.561540    
  7.6350902E-05  8.6516899E-05   8318.146       1.317209    
  8.6516899E-05  9.8036500E-05   5019.054       2.133023    
  9.8036500E-05  1.1109000E-04   6000.290       1.494852    
  1.1109000E-04  1.1678600E-04   5985.180       2.557797    
  1.1678600E-04  1.2277300E-04   4120.056       2.911652    
  1.2277300E-04  1.2906799E-04   5782.205       2.239002    
  1.2906799E-04  1.3568600E-04   5699.111       2.427910    
  1.3568600E-04  1.4264201E-04   4411.578       2.316446    
  1.4264201E-04  1.4995600E-04   3326.432       2.825146    
  1.4995600E-04  1.5764400E-04   2969.669       3.624316    
  1.5764400E-04  1.6163501E-04   2502.384       5.437243    
  1.6163501E-04  1.6572700E-04   3035.184       2.794528    
  1.6572700E-04  1.6992200E-04   2982.242       4.077914    
  1.6992200E-04  1.7422400E-04   2987.271       3.234124    
  1.7422400E-04  1.8315599E-04   3133.347       2.631012    
  1.8315599E-04  1.9254700E-04   3255.460       2.864999    
  1.9254700E-04  2.0241900E-04   2794.868       2.698853    
  2.0241900E-04  2.1279699E-04   2144.628       2.304183    
  2.1279699E-04  2.2370800E-04   2305.266       3.856401    
  2.2370800E-04  2.3517800E-04   2182.307       2.684024    
  2.3517800E-04  2.4723500E-04   2190.636       1.855001    
  2.4723500E-04  2.5991100E-04   2000.970       2.826723    
  2.5991100E-04  2.7323700E-04   2195.693       2.490626    
  2.7323700E-04  2.8015400E-04   1870.286       4.250073    
  2.8015400E-04  2.8724599E-04   1491.164       3.995327    
  2.8724599E-04  2.9451799E-04   1548.172       4.208179    
  2.9451799E-04  3.0197401E-04   1542.702       3.582204    
  3.0197401E-04  3.0961799E-04   1582.824       2.735462    
  3.0961799E-04  3.1745600E-04   1391.033       5.836855    
  3.1745600E-04  3.3373301E-04   1431.782       2.888849    
  3.3373301E-04  3.5084400E-04   1429.714       2.794284    
  3.5084400E-04  3.6883200E-04   1148.474       3.511585    
  3.6883200E-04  3.8774201E-04   1242.014       3.477070    
  3.8774201E-04  4.0762199E-04   1075.160       2.088614    
  4.0762199E-04  4.2852099E-04   867.7424       4.469789    
  4.2852099E-04  4.5049199E-04   857.1014       3.336506    
  4.5049199E-04  4.7358900E-04   828.1328       3.137205    
  4.7358900E-04  4.9787102E-04   820.2866       3.799853    
  4.9787102E-04  5.1047403E-04   796.1372       4.338481    
  5.1047403E-04  5.2339700E-04   695.5659       4.695481    
  5.2339700E-04  5.3664698E-04   594.5218       3.590975    
  5.3664698E-04  5.5023201E-04   618.7974       4.229483    
  5.5023201E-04  5.7844300E-04   593.8871       2.791148    
  5.7844300E-04  6.0810102E-04   514.6373       4.306778    
  6.0810102E-04  6.3927902E-04   485.0476       2.426594    
  6.3927902E-04  6.7205500E-04   399.7193       4.492130    
  6.7205500E-04  7.0651202E-04   435.2590       3.193156    
  7.0651202E-04  7.4273598E-04   376.8290       3.045325    
  7.4273598E-04  7.8081700E-04   338.3433       3.246034    
  7.8081700E-04  8.2085002E-04   256.1597       3.104852    
  8.2085002E-04  8.6293602E-04   252.7840       4.311654    
  8.6293602E-04  9.0717903E-04   211.1054       2.455796    
  9.0717903E-04  9.5369201E-04   201.7089       2.804912    
  9.5369201E-04  9.6163998E-04   193.3055       7.539592    
  9.6163998E-04  9.7783399E-04   171.5240       7.674932    
  9.7783399E-04  1.0025901E-03   178.8674       5.175138    
  1.0025901E-03  1.0539900E-03   151.2626       2.390848    
  1.0539900E-03  1.1080300E-03   150.9025       3.022140    
  1.1080300E-03  1.1648400E-03   135.0449       3.883852    
  1.1648400E-03  1.1943300E-03   126.0214       5.639930    
  1.1943300E-03  1.2245600E-03   128.8837       4.214968    
  1.2245600E-03  1.2873500E-03   119.4927       4.270361    
  1.2873500E-03  1.3533500E-03   116.6768       2.772553    
  1.3533500E-03  1.4227401E-03   113.8511       4.879955    
  1.4227401E-03  1.4956900E-03   109.3390       4.283437    
  1.4956900E-03  1.5335500E-03   107.8177       5.460071    
  1.5335500E-03  1.5723699E-03   94.54002       4.647023    
  1.5723699E-03  1.6121800E-03   98.94704       4.695695    
  1.6121800E-03  1.6529900E-03   88.40412       5.042612    
  1.6529900E-03  1.7377400E-03   88.67419       3.994193    
  1.7377400E-03  1.8268300E-03   81.27949       4.692612    
  1.8268300E-03  1.8730800E-03   80.19348       6.339154    
  1.8730800E-03  1.9205000E-03   85.99089       6.172276    
  1.9205000E-03  1.9691200E-03   68.04987       6.556312    
  1.9691200E-03  2.0189700E-03   69.21043       6.498198    
  2.0189700E-03  2.1224800E-03   60.37372       5.593184    
  2.1224800E-03  2.2313001E-03   66.10718       4.378489    
  2.2313001E-03  2.2688799E-03   56.36520       7.675882    
  2.2688799E-03  2.3068599E-03   48.56503       9.311249    
  2.3068599E-03  2.3457000E-03   60.34550       6.952252    
  2.3457000E-03  2.3652499E-03   58.26254       16.36041    
  2.3652499E-03  2.3852000E-03   55.68617       10.51069    
  2.3852000E-03  2.4251300E-03   63.00359       7.623448    
  2.4251300E-03  2.4659701E-03   57.81792       8.792418    
  2.4659701E-03  2.5923999E-03   44.08635       4.740746    
  2.5923999E-03  2.7253199E-03   42.59706       3.228238    
  2.7253199E-03  2.8650500E-03   39.87573       6.320767    
  2.8650500E-03  3.0119400E-03   33.06894       6.324421    
  3.0119400E-03  3.0881900E-03   35.14100       7.328121    
  3.0881900E-03  3.1663701E-03   28.73742       7.961944    
  3.1663701E-03  3.2465300E-03   29.13416       6.229932    
  3.2465300E-03  3.3287101E-03   29.41748       9.948580    
  3.3287101E-03  3.4993801E-03   23.81916       7.205027    
  3.4993801E-03  3.6787901E-03   23.52973       6.175581    
  3.6787901E-03  3.8674099E-03   20.68963       6.253285    
  3.8674099E-03  4.0656999E-03   21.37901       7.855087    
  4.0656999E-03  4.2741499E-03   19.02663       7.958450    
  4.2741499E-03  4.4932901E-03   18.96434       7.783020    
  4.4932901E-03  4.6070400E-03   14.92111       9.051819    
  4.6070400E-03  4.7236700E-03   16.56527       10.90358    
  4.7236700E-03  4.8432499E-03   16.74765       11.50041    
  4.8432499E-03  4.9658502E-03   15.98937       7.629797    
  4.9658502E-03  5.2204598E-03   14.29677       7.837550    
  5.2204598E-03  5.4881200E-03   14.20708       5.358859    
  5.4881200E-03  5.7695000E-03   12.08990       7.866961    
  5.7695000E-03  5.9155500E-03   10.59929       11.48232    
  5.9155500E-03  6.0653100E-03   13.49278       9.871831    
  6.0653100E-03  6.2188501E-03   12.19887       13.14272    
  6.2188501E-03  6.3762800E-03   11.41478       5.847893    
  6.3762800E-03  6.5377001E-03   9.922798       8.165970    
  6.5377001E-03  6.5923799E-03   15.08696       13.60668    
  6.5923799E-03  6.6475999E-03   10.90730       20.47221    
  6.6475999E-03  6.7031998E-03   7.903893       17.30105    
  6.7031998E-03  6.8728901E-03   7.618595       10.06617    
  6.8728901E-03  7.0468802E-03   10.19293       11.37726    
  7.0468802E-03  7.2252699E-03   8.995538       9.514458    
  7.2252699E-03  7.4081798E-03   9.194044       11.50562    
  7.4081798E-03  7.5957198E-03   8.904148       10.11278    
  7.5957198E-03  7.7880099E-03   9.334300       9.480890    
  7.7880099E-03  7.9851598E-03   7.749687       8.385859    
  7.9851598E-03  8.1873098E-03   6.928490       12.43760    
  8.1873098E-03  8.3945701E-03   7.391530       14.78929    
  8.3945701E-03  8.6070802E-03   7.663668       11.40209    
  8.6070802E-03  8.8249696E-03   7.212417       12.79384    
  8.8249696E-03  9.0483697E-03   7.104397       9.075064    
  9.0483697E-03  9.2774397E-03   5.662336       10.00901    
  9.2774397E-03  9.5122904E-03   6.955254       5.464474    
  9.5122904E-03  9.7530996E-03   4.738310       9.169477    
  9.7530996E-03  9.9999998E-03   6.214316       10.62788    
  9.9999998E-03  1.0253200E-02   5.280866       14.21956    
  1.0253200E-02  1.0512700E-02   5.061796       13.54406    
  1.0512700E-02  1.0778800E-02   5.765779       5.214425    
  1.0778800E-02  1.1051700E-02   4.604691       10.40060    
  1.1051700E-02  1.1331500E-02   4.855969       11.03508    
  1.1331500E-02  1.1618300E-02   4.800504       8.932648    
  1.1618300E-02  1.1912500E-02   4.473141       10.87996    
  1.1912500E-02  1.2214000E-02   4.275822       15.79789    
  1.2214000E-02  1.2523200E-02   4.849671       11.59776    
  1.2523200E-02  1.2840200E-02   4.627617       8.346892    
  1.2840200E-02  1.3165300E-02   3.860771       12.14544    
  1.3165300E-02  1.3498600E-02   3.259194       14.75084    
  1.3498600E-02  1.3840300E-02   3.299312       12.45053    
  1.3840300E-02  1.4190700E-02   3.146105       10.72619    
  1.4190700E-02  1.4549900E-02   4.225360       11.36909    
  1.4549900E-02  1.4918300E-02   3.230447       8.981771    
  1.4918300E-02  1.5295900E-02   2.951438       12.11617    
  1.5295900E-02  1.5683100E-02   3.493906       11.63225    
  1.5683100E-02  1.6080100E-02   3.158626       13.37331    
  1.6080100E-02  1.6487200E-02   2.176117       18.03600    
  1.6487200E-02  1.6904600E-02   2.759017       11.88692    
  1.6904600E-02  1.7332500E-02   2.762407       10.81018    
  1.7332500E-02  1.7771300E-02   2.611433       13.38296    
  1.7771300E-02  1.8221200E-02   2.434878       12.98890    
  1.8221200E-02  1.8682500E-02   2.466932       16.31711    
  1.8682500E-02  1.9155400E-02   2.191316       10.25314    
  1.9155400E-02  1.9640300E-02   1.863811       12.00060    
  1.9640300E-02  2.0000000E-02   1.621796       19.74108    
