 # Detector n:            1   HeIInflux 
 # N. of energy intervals         277
  1.0000100E-14  2.0000000E-13  1.0356447E+10   2.443147    
  2.0000000E-13  2.9297300E-13  2.1887285E+10   2.356833    
  2.9297300E-13  4.2916701E-13  3.2403573E+10   1.756657    
  4.2916701E-13  6.2867300E-13  4.6290514E+10   1.247281    
  6.2867300E-13  9.2092198E-13  6.3004107E+10  0.8127182    
  9.2092198E-13  1.3490300E-12  8.5047222E+10  0.5991747    
  1.3490300E-12  1.9761499E-12  1.1146317E+11  0.4761057    
  1.9761499E-12  2.8947901E-12  1.4357860E+11  0.3500375    
  2.8947901E-12  4.2404799E-12  1.7122217E+11  0.2508231    
  4.2404799E-12  6.2117499E-12  1.9106062E+11  0.2120059    
  6.2117499E-12  9.0993801E-12  1.9371396E+11  0.1805712    
  9.0993801E-12  1.3329400E-11  1.7517801E+11  0.1691814    
  1.3329400E-11  1.9525799E-11  1.3510710E+11  0.1645455    
  1.9525799E-11  2.8602700E-11  8.6108652E+10  0.1723951    
  2.8602700E-11  4.1899099E-11  4.4923404E+10  0.1855592    
  4.1899099E-11  6.1376598E-11  2.0781027E+10  0.2163190    
  6.1376598E-11  8.9908601E-11  8.7460413E+09  0.2456460    
  8.9908601E-11  1.3170399E-10  3.0756278E+09  0.3424653    
  1.3170399E-10  1.9292901E-10  9.5413811E+08  0.4940756    
  1.9292901E-10  2.8261499E-10  3.4897834E+08  0.7026032    
  2.8261499E-10  4.1399401E-10  1.7984120E+08  0.7635184    
  4.1399401E-10  5.3157900E-10  1.2189654E+08  0.8842483    
  5.3157900E-10  6.2506200E-10  9.6191736E+07   1.176891    
  6.2506200E-10  6.8256001E-10  8.3223720E+07   1.588420    
  6.8256001E-10  8.3368101E-10  7.2178144E+07   1.109764    
  8.3368101E-10  8.7642499E-10  6.1890928E+07   1.974231    
  8.7642499E-10  1.1253500E-09  5.2014496E+07   1.014810    
  1.1253500E-09  1.4449800E-09  3.8914080E+07  0.9582126    
  1.4449800E-09  1.8553900E-09  2.9250362E+07  0.9462371    
  1.8553900E-09  2.3823701E-09  2.2395216E+07   1.011338    
  2.3823701E-09  3.0590199E-09  1.7155680E+07  0.9573927    
  3.0590199E-09  3.9278598E-09  1.3011674E+07  0.9920813    
  3.9278598E-09  5.0434799E-09   9888375.       1.001861    
  5.0434799E-09  6.4759500E-09   7442510.       1.108338    
  6.4759500E-09  8.3152898E-09   5929713.       1.025090    
  8.3152898E-09  1.0677000E-08   4482752.       1.054386    
  1.0677000E-08  1.3709600E-08   3376793.       1.027409    
  1.3709600E-08  1.7603501E-08   2590646.       1.101389    
  1.7603501E-08  2.2603301E-08   1981772.       1.023386    
  2.2603301E-08  2.9023200E-08   1518583.       1.106803    
  2.9023200E-08  3.7266499E-08   1144132.       1.173962    
  3.7266499E-08  4.7851199E-08   891077.2       1.137922    
  4.7851199E-08  6.1442101E-08   661429.1       1.118983    
  6.1442101E-08  7.8893301E-08   501370.5       1.092167    
  7.8893301E-08  1.0130100E-07   385927.6       1.451968    
  1.0130100E-07  1.3007300E-07   291343.2       1.290496    
  1.3007300E-07  1.6701701E-07   219201.2       1.113951    
  1.6701701E-07  2.1445400E-07   166530.7       1.286947    
  2.1445400E-07  2.7536399E-07   126290.8       1.275455    
  2.7536399E-07  3.5357499E-07   93796.20       1.272257    
  3.5357499E-07  4.5399901E-07   70384.41       1.230173    
  4.5399901E-07  5.8294700E-07   54340.44       1.266360    
  5.8294700E-07  7.4851800E-07   41199.09       1.185306    
  7.4851800E-07  9.6111603E-07   30406.63       1.246340    
  9.6111603E-07  1.2341000E-06   23088.84       1.278235    
  1.2341000E-06  1.3638900E-06   19056.51       1.996320    
  1.3638900E-06  1.5073300E-06   17198.66       1.903717    
  1.5073300E-06  1.5846100E-06   15116.08       2.779432    
  1.5846100E-06  1.6658601E-06   14548.45       2.971660    
  1.6658601E-06  1.8410600E-06   13646.73       2.034239    
  1.8410600E-06  2.0346799E-06   12369.82       2.170076    
  2.0346799E-06  2.2486699E-06   10738.56       2.126417    
  2.2486699E-06  2.4851699E-06   9672.723       2.258012    
  2.4851699E-06  2.6125899E-06   8782.709       2.951723    
  2.6125899E-06  2.7465401E-06   8022.591       2.698239    
  2.7465401E-06  2.8634900E-06   7977.730       3.172320    
  2.8634900E-06  3.0353899E-06   7293.940       2.721940    
  3.0353899E-06  3.3546301E-06   6706.375       2.029540    
  3.3546301E-06  3.7074401E-06   5988.516       2.215022    
  3.7074401E-06  4.0973500E-06   5359.378       2.153986    
  4.0973500E-06  4.3074201E-06   4673.353       3.169375    
  4.3074201E-06  4.5282700E-06   4692.824       2.842257    
  4.5282700E-06  5.0045101E-06   4294.322       2.145823    
  5.0045101E-06  5.5308401E-06   4369.349       2.070673    
  5.5308401E-06  6.2672698E-06   2854.894       2.198040    
  6.2672698E-06  7.1017398E-06   2852.528       2.051188    
  7.1017398E-06  8.0473301E-06   2506.585       2.131534    
  8.0473301E-06  9.1188203E-06   2035.137       2.098434    
  9.1188203E-06  1.0333000E-05   1920.573       2.048567    
  1.0333000E-05  1.1708800E-05   1590.978       2.171262    
  1.1708800E-05  1.3267800E-05   1391.739       2.038934    
  1.3267800E-05  1.5034400E-05   1252.934       5.254449    
  1.5034400E-05  1.7036200E-05   1016.740       2.080390    
  1.7036200E-05  1.9304500E-05   845.1918       2.343651    
  1.9304500E-05  2.1334799E-05   744.3741       2.625163    
  2.1334799E-05  2.1874899E-05   665.8947       4.902225    
  2.1874899E-05  2.3578599E-05   646.4525       2.901217    
  2.3578599E-05  2.4175501E-05   664.3134       5.416461    
  2.4175501E-05  2.4787500E-05   532.3574       4.718693    
  2.4787500E-05  2.6058400E-05   601.5784       3.458361    
  2.6058400E-05  2.8087899E-05   611.9153       2.616514    
  2.8087899E-05  3.1827800E-05   614.1074       1.858341    
  3.1827800E-05  3.4306700E-05   371.9879       3.504064    
  3.4306700E-05  3.5175199E-05   167.3589       7.852975    
  3.5175199E-05  3.6065601E-05   159.5812       7.682727    
  3.6065601E-05  4.0867701E-05   234.8016       2.837629    
  4.0867701E-05  4.6309200E-05   276.1711       2.513170    
  4.6309200E-05  5.2475199E-05   256.8591       2.420481    
  5.2475199E-05  5.6562199E-05   222.9549       3.103162    
  5.6562199E-05  5.9462200E-05   198.3212       4.138910    
  5.9462200E-05  6.2510902E-05   205.1742       3.566910    
  6.2510902E-05  6.7379500E-05   197.3722       2.863052    
  6.7379500E-05  7.6350902E-05   209.1121       2.237682    
  7.6350902E-05  8.6516899E-05   140.1027       2.350928    
  8.6516899E-05  9.8036500E-05   82.51305       3.198158    
  9.8036500E-05  1.1109000E-04   101.0097       2.498572    
  1.1109000E-04  1.1678600E-04   94.96249       3.609128    
  1.1678600E-04  1.2277300E-04   73.51837       4.551976    
  1.2277300E-04  1.2906799E-04   107.5409       3.498771    
  1.2906799E-04  1.3568600E-04   113.1815       3.252678    
  1.3568600E-04  1.4264201E-04   81.73790       3.875513    
  1.4264201E-04  1.4995600E-04   60.75116       4.376256    
  1.4995600E-04  1.5764400E-04   59.66719       4.768904    
  1.5764400E-04  1.6163501E-04   48.61071       6.326445    
  1.6163501E-04  1.6572700E-04   54.31674       6.143557    
  1.6572700E-04  1.6992200E-04   59.07602       5.530053    
  1.6992200E-04  1.7422400E-04   63.13382       5.521512    
  1.7422400E-04  1.8315599E-04   62.53307       3.841259    
  1.8315599E-04  1.9254700E-04   59.82589       3.545636    
  1.9254700E-04  2.0241900E-04   60.29347       3.816559    
  2.0241900E-04  2.1279699E-04   46.32866       4.339835    
  2.1279699E-04  2.2370800E-04   47.63197       3.795630    
  2.2370800E-04  2.3517800E-04   46.73630       3.904721    
  2.3517800E-04  2.4723500E-04   45.27486       3.942700    
  2.4723500E-04  2.5991100E-04   46.16307       3.929251    
  2.5991100E-04  2.7323700E-04   49.15754       3.557018    
  2.7323700E-04  2.8015400E-04   42.54174       4.828690    
  2.8015400E-04  2.8724599E-04   34.37311       5.483427    
  2.8724599E-04  2.9451799E-04   34.66724       5.630637    
  2.9451799E-04  3.0197401E-04   36.85882       5.010432    
  3.0197401E-04  3.0961799E-04   34.95543       5.033241    
  3.0961799E-04  3.1745600E-04   35.61506       4.947512    
  3.1745600E-04  3.3373301E-04   33.00666       3.578050    
  3.3373301E-04  3.5084400E-04   35.70262       3.359013    
  3.5084400E-04  3.6883200E-04   29.68791       3.621410    
  3.6883200E-04  3.8774201E-04   28.70555       3.651777    
  3.8774201E-04  4.0762199E-04   27.65324       3.644084    
  4.0762199E-04  4.2852099E-04   24.99946       4.068871    
  4.2852099E-04  4.5049199E-04   21.38283       4.036728    
  4.5049199E-04  4.7358900E-04   21.13216       3.552729    
  4.7358900E-04  4.9787102E-04   19.85739       3.470771    
  4.9787102E-04  5.1047403E-04   21.32815       5.225243    
  5.1047403E-04  5.2339700E-04   19.86117       5.252699    
  5.2339700E-04  5.3664698E-04   18.09252       4.830135    
  5.3664698E-04  5.5023201E-04   17.61378       5.507974    
  5.5023201E-04  5.7844300E-04   16.49596       3.655105    
  5.7844300E-04  6.0810102E-04   15.24479       3.471909    
  6.0810102E-04  6.3927902E-04   15.42624       3.525206    
  6.3927902E-04  6.7205500E-04   12.10932       3.928195    
  6.7205500E-04  7.0651202E-04   11.94342       3.453437    
  7.0651202E-04  7.4273598E-04   10.95994       3.713974    
  7.4273598E-04  7.8081700E-04   9.346390       3.530155    
  7.8081700E-04  8.2085002E-04   8.713030       3.647795    
  8.2085002E-04  8.6293602E-04   7.412552       3.729977    
  8.6293602E-04  9.0717903E-04   7.167110       3.665677    
  9.0717903E-04  9.5369201E-04   6.430769       3.640247    
  9.5369201E-04  9.6163998E-04   5.995467       9.129684    
  9.6163998E-04  9.7783399E-04   5.801097       5.695577    
  9.7783399E-04  1.0025901E-03   5.488471       4.964026    
  1.0025901E-03  1.0539900E-03   5.290056       3.579671    
  1.0539900E-03  1.1080300E-03   5.118245       3.281477    
  1.1080300E-03  1.1648400E-03   4.784735       3.759041    
  1.1648400E-03  1.1943300E-03   4.607357       5.809160    
  1.1943300E-03  1.2245600E-03   4.738588       4.917380    
  1.2245600E-03  1.2873500E-03   4.731627       3.446708    
  1.2873500E-03  1.3533500E-03   4.518291       3.888031    
  1.3533500E-03  1.4227401E-03   4.451160       3.461861    
  1.4227401E-03  1.4956900E-03   4.561460       3.389449    
  1.4956900E-03  1.5335500E-03   5.052835       4.946700    
  1.5335500E-03  1.5723699E-03   4.033970       5.157807    
  1.5723699E-03  1.6121800E-03   5.101512       5.024771    
  1.6121800E-03  1.6529900E-03   4.763980       4.081775    
  1.6529900E-03  1.7377400E-03   4.465929       3.470338    
  1.7377400E-03  1.8268300E-03   4.481183       3.741747    
  1.8268300E-03  1.8730800E-03   4.397867       4.910268    
  1.8730800E-03  1.9205000E-03   4.148233       4.864519    
  1.9205000E-03  1.9691200E-03   4.201271       5.073035    
  1.9691200E-03  2.0189700E-03   3.728396       4.829418    
  2.0189700E-03  2.1224800E-03   3.794329       3.438260    
  2.1224800E-03  2.2313001E-03   3.818737       3.610402    
  2.2313001E-03  2.2688799E-03   3.995694       6.383595    
  2.2688799E-03  2.3068599E-03   3.797611       5.815707    
  2.3068599E-03  2.3457000E-03   3.965686       6.401521    
  2.3457000E-03  2.3652499E-03   4.362337       9.510157    
  2.3652499E-03  2.3852000E-03   3.616296       8.070792    
  2.3852000E-03  2.4251300E-03   3.744385       6.094293    
  2.4251300E-03  2.4659701E-03   3.565706       6.455985    
  2.4659701E-03  2.5923999E-03   3.289866       3.563760    
  2.5923999E-03  2.7253199E-03   3.183503       3.859436    
  2.7253199E-03  2.8650500E-03   3.002708       3.812509    
  2.8650500E-03  3.0119400E-03   2.736478       3.842375    
  3.0119400E-03  3.0881900E-03   2.895737       5.351291    
  3.0881900E-03  3.1663701E-03   2.709043       4.924116    
  3.1663701E-03  3.2465300E-03   2.516672       5.507781    
  3.2465300E-03  3.3287101E-03   2.640523       5.165107    
  3.3287101E-03  3.4993801E-03   2.347044       3.902471    
  3.4993801E-03  3.6787901E-03   2.417605       3.788486    
  3.6787901E-03  3.8674099E-03   2.191858       3.773553    
  3.8674099E-03  4.0656999E-03   2.452633       3.943310    
  4.0656999E-03  4.2741499E-03   2.515602       3.831517    
  4.2741499E-03  4.4932901E-03   2.016203       3.826706    
  4.4932901E-03  4.6070400E-03   1.916725       5.349349    
  4.6070400E-03  4.7236700E-03   2.165068       5.361232    
  4.7236700E-03  4.8432499E-03   2.231329       5.002484    
  4.8432499E-03  4.9658502E-03   1.962514       5.265666    
  4.9658502E-03  5.2204598E-03   1.894948       3.884537    
  5.2204598E-03  5.4881200E-03   1.832859       3.655847    
  5.4881200E-03  5.7695000E-03   1.774717       4.197869    
  5.7695000E-03  5.9155500E-03   1.673691       5.325709    
  5.9155500E-03  6.0653100E-03   1.592626       5.510420    
  6.0653100E-03  6.2188501E-03   1.681049       5.278359    
  6.2188501E-03  6.3762800E-03   1.656869       5.181643    
  6.3762800E-03  6.5377001E-03   1.518105       5.427704    
  6.5377001E-03  6.5923799E-03   1.352083       9.445931    
  6.5923799E-03  6.6475999E-03   1.362590       9.782458    
  6.6475999E-03  6.7031998E-03   1.624356       10.97418    
  6.7031998E-03  6.8728901E-03   1.467099       5.271333    
  6.8728901E-03  7.0468802E-03   1.564298       5.217846    
  7.0468802E-03  7.2252699E-03   1.361476       5.641994    
  7.2252699E-03  7.4081798E-03   1.291895       5.054104    
  7.4081798E-03  7.5957198E-03   1.204384       6.023909    
  7.5957198E-03  7.7880099E-03   1.105950       5.559346    
  7.7880099E-03  7.9851598E-03   1.130470       6.183236    
  7.9851598E-03  8.1873098E-03   1.141811       5.400695    
  8.1873098E-03  8.3945701E-03   1.103102       5.414892    
  8.3945701E-03  8.6070802E-03   1.135774       5.753581    
  8.6070802E-03  8.8249696E-03   1.060324       5.854097    
  8.8249696E-03  9.0483697E-03   1.078578       5.568800    
  9.0483697E-03  9.2774397E-03  0.9740122       5.707314    
  9.2774397E-03  9.5122904E-03   1.001289       5.660058    
  9.5122904E-03  9.7530996E-03   1.070120       5.914526    
  9.7530996E-03  9.9999998E-03  0.9790368       5.272709    
  9.9999998E-03  1.0253200E-02  0.9907112       5.436765    
  1.0253200E-02  1.0512700E-02  0.9471101       5.673839    
  1.0512700E-02  1.0778800E-02  0.9948872       5.262114    
  1.0778800E-02  1.1051700E-02  0.9766954       6.048400    
  1.1051700E-02  1.1331500E-02  0.8667911       5.760346    
  1.1331500E-02  1.1618300E-02  0.8815145       6.599883    
  1.1618300E-02  1.1912500E-02  0.8455265       5.146705    
  1.1912500E-02  1.2214000E-02  0.8639576       5.656570    
  1.2214000E-02  1.2523200E-02  0.8483998       5.662620    
  1.2523200E-02  1.2840200E-02  0.7826707       5.308808    
  1.2840200E-02  1.3165300E-02  0.8080867       5.842171    
  1.3165300E-02  1.3498600E-02  0.8493286       6.150367    
  1.3498600E-02  1.3840300E-02  0.7958540       5.534163    
  1.3840300E-02  1.4190700E-02  0.8386218       5.847025    
  1.4190700E-02  1.4549900E-02  0.7439597       5.635243    
  1.4549900E-02  1.4918300E-02  0.7486470       5.533382    
  1.4918300E-02  1.5295900E-02  0.7281781       5.819830    
  1.5295900E-02  1.5683100E-02  0.6717929       5.596040    
  1.5683100E-02  1.6080100E-02  0.6779976       6.509349    
  1.6080100E-02  1.6487200E-02  0.7131488       5.863219    
  1.6487200E-02  1.6904600E-02  0.6490430       6.079893    
  1.6904600E-02  1.7332500E-02  0.5751597       6.593709    
  1.7332500E-02  1.7771300E-02  0.5763950       5.828900    
  1.7771300E-02  1.8221200E-02  0.6316100       5.550834    
  1.8221200E-02  1.8682500E-02  0.5741594       6.105086    
  1.8682500E-02  1.9155400E-02  0.5860201       5.459644    
  1.9155400E-02  1.9640300E-02  0.4970441       5.795468    
  1.9640300E-02  2.0000000E-02  0.5244902       7.062912    
  2.0000000E-02  2.5174996E-02  0.5452585       2.076481    
  2.5174996E-02  3.1689022E-02  0.5037219       1.977613    
  3.1689022E-02  3.9888553E-02  0.4868910       1.759245    
  3.9888553E-02  5.0209712E-02  0.4609487       1.749307    
  5.0209712E-02  6.3201472E-02  0.4254005       1.689882    
  6.3201472E-02  7.9554841E-02  0.3794310       1.592140    
  7.9554841E-02  0.1001396      0.3152999       1.605770    
  0.1001396      0.1260508      0.2534383       1.713807    
  0.1260508      0.1586664      0.1991533       1.820754    
  0.1586664      0.1997213      0.1317760       2.010317    
  0.1997213      0.2513991      8.0177531E-02   2.286280    
  0.2513991      0.3164486      3.4904245E-02   3.412741    
  0.3164486      0.3983297      6.7139640E-03   7.545549    
  0.3983297      0.5013974      2.8574010E-04   29.69168    
  0.5013974      0.6311339       0.000000       0.000000    
  0.6311339      0.7944397       0.000000       0.000000    
  0.7944397       1.000001       0.000000       0.000000    
