 # Detector n:  1  HeIInflux 
 # N. of energy intervals 260
  1.0000100E-14  2.0000000E-13  1.4008392E+11   10.55678    
  2.0000000E-13  2.9297300E-13  2.8608263E+11   13.46062    
  2.9297300E-13  4.2916701E-13  4.3712633E+11   9.670731    
  4.2916701E-13  6.2867300E-13  7.0297420E+11   5.853819    
  6.2867300E-13  9.2092198E-13  8.6263516E+11   3.447422    
  9.2092198E-13  1.3490300E-12  1.1700025E+12   3.293421    
  1.3490300E-12  1.9761499E-12  1.4617573E+12   3.268625    
  1.9761499E-12  2.8947901E-12  1.8758575E+12   1.672522    
  2.8947901E-12  4.2404799E-12  2.2622838E+12   1.229460    
  4.2404799E-12  6.2117499E-12  2.5034762E+12  0.8229476    
  6.2117499E-12  9.0993801E-12  2.5701534E+12  0.8236369    
  9.0993801E-12  1.3329400E-11  2.2600194E+12  0.7277083    
  1.3329400E-11  1.9525799E-11  1.6897257E+12  0.9218811    
  1.9525799E-11  2.8602700E-11  1.0077030E+12  0.7039003    
  2.8602700E-11  4.1899099E-11  4.5976407E+11   1.091390    
  4.1899099E-11  6.1376598E-11  1.7551892E+11   1.136484    
  6.1376598E-11  8.9908601E-11  7.0594920E+10  0.8562052    
  8.9908601E-11  1.3170399E-10  3.1975246E+10   1.498317    
  1.3170399E-10  1.9292901E-10  1.6867945E+10   1.174806    
  1.9292901E-10  2.8261499E-10  1.0035227E+10  0.5390972    
  2.8261499E-10  4.1399401E-10  6.4597048E+09  0.5993803    
  4.1399401E-10  5.3157900E-10  4.5656192E+09   1.060393    
  5.3157900E-10  6.2506200E-10  3.7240351E+09  0.8550611    
  6.2506200E-10  6.8256001E-10  3.3390807E+09   1.299189    
  6.8256001E-10  8.3368101E-10  2.8240184E+09  0.6798877    
  8.3368101E-10  8.7642499E-10  2.4732570E+09   1.387148    
  8.7642499E-10  1.1253500E-09  2.0999821E+09  0.8391383    
  1.1253500E-09  1.4449800E-09  1.6356614E+09  0.8657590    
  1.4449800E-09  1.8553900E-09  1.2544823E+09  0.5849546    
  1.8553900E-09  2.3823701E-09  9.7017632E+08  0.7785000    
  2.3823701E-09  3.0590199E-09  7.5811251E+08  0.6315633    
  3.0590199E-09  3.9278598E-09  5.8091430E+08  0.9012504    
  3.9278598E-09  5.0434799E-09  4.5764720E+08  0.6817383    
  5.0434799E-09  6.4759500E-09  3.5549427E+08  0.8248879    
  6.4759500E-09  8.3152898E-09  2.7465261E+08  0.6418155    
  8.3152898E-09  1.0677000E-08  2.1657658E+08  0.7119008    
  1.0677000E-08  1.3709600E-08  1.6491144E+08  0.6268372    
  1.3709600E-08  1.7603501E-08  1.2874554E+08  0.8503335    
  1.7603501E-08  2.2603301E-08  1.0134064E+08  0.7015979    
  2.2603301E-08  2.9023200E-08  7.8410328E+07  0.7185203    
  2.9023200E-08  3.7266499E-08  5.9724488E+07  0.6901847    
  3.7266499E-08  4.7851199E-08  4.6624464E+07  0.8442716    
  4.7851199E-08  6.1442101E-08  3.5784372E+07  0.7989055    
  6.1442101E-08  7.8893301E-08  2.8435998E+07  0.6694072    
  7.8893301E-08  1.0130100E-07  2.1833700E+07  0.6613253    
  1.0130100E-07  1.3007300E-07  1.6841512E+07  0.6691113    
  1.3007300E-07  1.6701701E-07  1.3159149E+07  0.7764964    
  1.6701701E-07  2.1445400E-07  1.0233468E+07  0.7448767    
  2.1445400E-07  2.7536399E-07   7809826.      0.5143716    
  2.7536399E-07  3.5357499E-07   5976203.      0.6782827    
  3.5357499E-07  4.5399901E-07   4671434.      0.9159626    
  4.5399901E-07  5.8294700E-07   3558525.      0.7001358    
  5.8294700E-07  7.4851800E-07   2731473.      0.8716509    
  7.4851800E-07  9.6111603E-07   2099575.      0.5811003    
  9.6111603E-07  1.2341000E-06   1645090.      0.7166693    
  1.2341000E-06  1.3638900E-06   1357765.       1.226964    
  1.3638900E-06  1.5073300E-06   1242798.       1.043909    
  1.5073300E-06  1.5846100E-06   1113748.       1.616189    
  1.5846100E-06  1.6658601E-06   1034668.       1.436669    
  1.6658601E-06  1.8410600E-06   974905.6      0.9125405    
  1.8410600E-06  2.0346799E-06   883644.4       1.273375    
  2.0346799E-06  2.2486699E-06   788988.1       1.435920    
  2.2486699E-06  2.4851699E-06   695409.6      0.9047943    
  2.4851699E-06  2.6125899E-06   657981.8       1.440370    
  2.6125899E-06  2.7465401E-06   610368.1       1.948303    
  2.7465401E-06  2.8634900E-06   591394.1       1.958472    
  2.8634900E-06  3.0353899E-06   550251.9       1.791623    
  3.0353899E-06  3.3546301E-06   496582.4       1.332346    
  3.3546301E-06  3.7074401E-06   464355.5       1.154111    
  3.7074401E-06  4.0973500E-06   421488.2       1.423758    
  4.0973500E-06  4.3074201E-06   380418.6       1.869458    
  4.3074201E-06  4.5282700E-06   353470.3       1.683223    
  4.5282700E-06  5.0045101E-06   335311.7       1.589936    
  5.0045101E-06  5.5308401E-06   323772.3       1.329380    
  5.5308401E-06  6.2672698E-06   235092.0       1.235779    
  6.2672698E-06  7.1017398E-06   231199.0       1.271938    
  7.1017398E-06  8.0473301E-06   200360.6      0.9716836    
  8.0473301E-06  9.1188203E-06   175370.2       1.109573    
  9.1188203E-06  1.0333000E-05   152787.8       1.086378    
  1.0333000E-05  1.1708800E-05   130789.9       1.280308    
  1.1708800E-05  1.3267800E-05   118636.2       1.645729    
  1.3267800E-05  1.5034400E-05   97211.12       1.272851    
  1.5034400E-05  1.7036200E-05   85782.91       1.131124    
  1.7036200E-05  1.9304500E-05   73167.14       1.266525    
  1.9304500E-05  2.1334799E-05   64238.59       1.499414    
  2.1334799E-05  2.1874899E-05   62010.36       2.927997    
  2.1874899E-05  2.3578599E-05   57068.99       2.149138    
  2.3578599E-05  2.4175501E-05   52504.93       1.837218    
  2.4175501E-05  2.4787500E-05   50939.81       3.059260    
  2.4787500E-05  2.6058400E-05   50421.38       2.124446    
  2.6058400E-05  2.8087899E-05   49326.28       1.808269    
  2.8087899E-05  3.1827800E-05   50432.54       1.502052    
  3.1827800E-05  3.4306700E-05   34052.82       1.726738    
  3.4306700E-05  3.5175199E-05   19108.12       3.167540    
  3.5175199E-05  3.6065601E-05   17230.32       3.871938    
  3.6065601E-05  4.0867701E-05   22071.88       1.328990    
  4.0867701E-05  4.6309200E-05   24496.37       1.910993    
  4.6309200E-05  5.2475199E-05   22218.44       1.617861    
  5.2475199E-05  5.6562199E-05   19703.66       1.595579    
  5.6562199E-05  5.9462200E-05   18369.69       2.573350    
  5.9462200E-05  6.2510902E-05   17177.27       2.566988    
  6.2510902E-05  6.7379500E-05   16390.85       1.649961    
  6.7379500E-05  7.6350902E-05   16153.43       1.320646    
  7.6350902E-05  8.6516899E-05   12168.17       1.519352    
  8.6516899E-05  9.8036500E-05   7014.701       1.870793    
  9.8036500E-05  1.1109000E-04   8658.856       1.577932    
  1.1109000E-04  1.1678600E-04   8020.863       3.098636    
  1.1678600E-04  1.2277300E-04   6016.958       1.779106    
  1.2277300E-04  1.2906799E-04   7940.094       3.105505    
  1.2906799E-04  1.3568600E-04   7529.106       1.742508    
  1.3568600E-04  1.4264201E-04   5729.005       2.930425    
  1.4264201E-04  1.4995600E-04   4558.241       3.063272    
  1.4995600E-04  1.5764400E-04   4176.513       3.200635    
  1.5764400E-04  1.6163501E-04   3428.856       6.044982    
  1.6163501E-04  1.6572700E-04   4004.559       3.242723    
  1.6572700E-04  1.6992200E-04   4255.734       3.313970    
  1.6992200E-04  1.7422400E-04   4131.889       3.280760    
  1.7422400E-04  1.8315599E-04   4213.630       1.485439    
  1.8315599E-04  1.9254700E-04   4259.505       2.222708    
  1.9254700E-04  2.0241900E-04   4006.649       3.195115    
  2.0241900E-04  2.1279699E-04   3067.651       2.732883    
  2.1279699E-04  2.2370800E-04   3135.715       2.817537    
  2.2370800E-04  2.3517800E-04   3022.492       2.898654    
  2.3517800E-04  2.4723500E-04   3024.232       2.506286    
  2.4723500E-04  2.5991100E-04   2950.205       3.709327    
  2.5991100E-04  2.7323700E-04   2773.264       2.936693    
  2.7323700E-04  2.8015400E-04   2583.230       5.378197    
  2.8015400E-04  2.8724599E-04   2119.366       4.026226    
  2.8724599E-04  2.9451799E-04   2032.024       5.150063    
  2.9451799E-04  3.0197401E-04   2060.788       4.063229    
  3.0197401E-04  3.0961799E-04   2110.484       3.254198    
  3.0961799E-04  3.1745600E-04   1849.180       3.548224    
  3.1745600E-04  3.3373301E-04   1932.574       2.479767    
  3.3373301E-04  3.5084400E-04   1887.177       2.594673    
  3.5084400E-04  3.6883200E-04   1566.412       2.976916    
  3.6883200E-04  3.8774201E-04   1507.606       2.674081    
  3.8774201E-04  4.0762199E-04   1470.717       2.830110    
  4.0762199E-04  4.2852099E-04   1247.395       2.414100    
  4.2852099E-04  4.5049199E-04   1085.497       2.858410    
  4.5049199E-04  4.7358900E-04   1100.346       3.102308    
  4.7358900E-04  4.9787102E-04   1046.708       3.932708    
  4.9787102E-04  5.1047403E-04   1019.307       3.595759    
  5.1047403E-04  5.2339700E-04   958.6191       4.925243    
  5.2339700E-04  5.3664698E-04   794.8745       6.090693    
  5.3664698E-04  5.5023201E-04   875.3433       5.044107    
  5.5023201E-04  5.7844300E-04   741.3769       2.596590    
  5.7844300E-04  6.0810102E-04   715.0452       3.820177    
  6.0810102E-04  6.3927902E-04   652.5234       3.334162    
  6.3927902E-04  6.7205500E-04   533.8135       2.922968    
  6.7205500E-04  7.0651202E-04   559.4779       2.758524    
  7.0651202E-04  7.4273598E-04   484.0968       3.064212    
  7.4273598E-04  7.8081700E-04   383.7040       3.653943    
  7.8081700E-04  8.2085002E-04   308.4416       3.813152    
  8.2085002E-04  8.6293602E-04   285.0477       3.488723    
  8.6293602E-04  9.0717903E-04   270.3955       4.399780    
  9.0717903E-04  9.5369201E-04   227.9137       4.512911    
  9.5369201E-04  9.6163998E-04   204.2357       8.022571    
  9.6163998E-04  9.7783399E-04   187.6319       5.076073    
  9.7783399E-04  1.0025901E-03   207.0908       4.404458    
  1.0025901E-03  1.0539900E-03   190.0542       2.860369    
  1.0539900E-03  1.1080300E-03   179.0916       3.200516    
  1.1080300E-03  1.1648400E-03   153.4975       3.735200    
  1.1648400E-03  1.1943300E-03   148.3876       3.343248    
  1.1943300E-03  1.2245600E-03   152.7713       4.048180    
  1.2245600E-03  1.2873500E-03   138.0903       3.866675    
  1.2873500E-03  1.3533500E-03   135.6533       4.247977    
  1.3533500E-03  1.4227401E-03   126.5733       3.744560    
  1.4227401E-03  1.4956900E-03   129.9468       4.038702    
  1.4956900E-03  1.5335500E-03   125.5605       3.389667    
  1.5335500E-03  1.5723699E-03   119.1998       3.969152    
  1.5723699E-03  1.6121800E-03   134.9633       4.438485    
  1.6121800E-03  1.6529900E-03   115.1672       5.222801    
  1.6529900E-03  1.7377400E-03   114.9874       4.356362    
  1.7377400E-03  1.8268300E-03   103.2017       2.733265    
  1.8268300E-03  1.8730800E-03   122.8244       3.840214    
  1.8730800E-03  1.9205000E-03   94.96885       6.616549    
  1.9205000E-03  1.9691200E-03   102.6798       4.952331    
  1.9691200E-03  2.0189700E-03   97.43850       6.189706    
  2.0189700E-03  2.1224800E-03   91.26547       3.957530    
  2.1224800E-03  2.2313001E-03   83.28492       4.311918    
  2.2313001E-03  2.2688799E-03   85.55875       10.77497    
  2.2688799E-03  2.3068599E-03   73.53440       6.632009    
  2.3068599E-03  2.3457000E-03   81.16183       8.575423    
  2.3457000E-03  2.3652499E-03   69.39687       9.123774    
  2.3652499E-03  2.3852000E-03   66.80592       9.199869    
  2.3852000E-03  2.4251300E-03   73.44566       8.058640    
  2.4251300E-03  2.4659701E-03   82.06548       8.046885    
  2.4659701E-03  2.5923999E-03   66.43670       5.045607    
  2.5923999E-03  2.7253199E-03   58.20341       5.515383    
  2.7253199E-03  2.8650500E-03   50.88097       4.148656    
  2.8650500E-03  3.0119400E-03   46.43017       6.183703    
  3.0119400E-03  3.0881900E-03   50.37226       6.473824    
  3.0881900E-03  3.1663701E-03   45.54390       6.697663    
  3.1663701E-03  3.2465300E-03   49.82443       5.980921    
  3.2465300E-03  3.3287101E-03   43.83123       10.94858    
  3.3287101E-03  3.4993801E-03   42.03338       3.882975    
  3.4993801E-03  3.6787901E-03   33.42631       5.766156    
  3.6787901E-03  3.8674099E-03   37.24214       7.742432    
  3.8674099E-03  4.0656999E-03   31.45317       7.138406    
  4.0656999E-03  4.2741499E-03   25.90339       4.933708    
  4.2741499E-03  4.4932901E-03   28.73745       5.783487    
  4.4932901E-03  4.6070400E-03   23.72480       7.301775    
  4.6070400E-03  4.7236700E-03   25.77921       7.219622    
  4.7236700E-03  4.8432499E-03   26.96010       10.30268    
  4.8432499E-03  4.9658502E-03   23.73425       12.30955    
  4.9658502E-03  5.2204598E-03   20.83067       7.020234    
  5.2204598E-03  5.4881200E-03   21.80942       6.924756    
  5.4881200E-03  5.7695000E-03   18.25791       6.149522    
  5.7695000E-03  5.9155500E-03   19.72523       6.249896    
  5.9155500E-03  6.0653100E-03   16.93359       8.508725    
  6.0653100E-03  6.2188501E-03   19.66193       9.158868    
  6.2188501E-03  6.3762800E-03   14.25514       8.619672    
  6.3762800E-03  6.5377001E-03   17.29364       9.112137    
  6.5377001E-03  6.5923799E-03   16.61322       16.31385    
  6.5923799E-03  6.6475999E-03   12.49384       16.58736    
  6.6475999E-03  6.7031998E-03   18.74916       15.61158    
  6.7031998E-03  6.8728901E-03   17.76045       12.97139    
  6.8728901E-03  7.0468802E-03   15.34016       8.037572    
  7.0468802E-03  7.2252699E-03   12.78615       11.52039    
  7.2252699E-03  7.4081798E-03   14.16253       10.23161    
  7.4081798E-03  7.5957198E-03   14.15184       7.247449    
  7.5957198E-03  7.7880099E-03   12.05076       10.17115    
  7.7880099E-03  7.9851598E-03   11.76912       9.535939    
  7.9851598E-03  8.1873098E-03   11.32849       9.419042    
  8.1873098E-03  8.3945701E-03   12.94394       8.014254    
  8.3945701E-03  8.6070802E-03   9.514511       10.82982    
  8.6070802E-03  8.8249696E-03   10.79312       7.365699    
  8.8249696E-03  9.0483697E-03   9.051265       11.07924    
  9.0483697E-03  9.2774397E-03   9.648829       11.80732    
  9.2774397E-03  9.5122904E-03   12.42201       9.933228    
  9.5122904E-03  9.7530996E-03   10.41656       9.304837    
  9.7530996E-03  9.9999998E-03   8.410345       9.258325    
  9.9999998E-03  1.0253200E-02   9.090801       12.39770    
  1.0253200E-02  1.0512700E-02   8.286047       9.071843    
  1.0512700E-02  1.0778800E-02   10.07939       9.453623    
  1.0778800E-02  1.1051700E-02   8.008400       12.46593    
  1.1051700E-02  1.1331500E-02   8.846912       10.17554    
  1.1331500E-02  1.1618300E-02   8.078769       12.57415    
  1.1618300E-02  1.1912500E-02   7.298074       9.605746    
  1.1912500E-02  1.2214000E-02   8.256970       10.42472    
  1.2214000E-02  1.2523200E-02   6.367331       12.19117    
  1.2523200E-02  1.2840200E-02   5.454341       15.83085    
  1.2840200E-02  1.3165300E-02   6.059773       14.15640    
  1.3165300E-02  1.3498600E-02   7.194324       9.889037    
  1.3498600E-02  1.3840300E-02   6.745889       11.27547    
  1.3840300E-02  1.4190700E-02   5.438331       7.519401    
  1.4190700E-02  1.4549900E-02   4.433121       12.42758    
  1.4549900E-02  1.4918300E-02   4.903629       12.05772    
  1.4918300E-02  1.5295900E-02   5.602567       12.28596    
  1.5295900E-02  1.5683100E-02   7.077557       11.63672    
  1.5683100E-02  1.6080100E-02   5.693322       12.36338    
  1.6080100E-02  1.6487200E-02   5.316967       11.71838    
  1.6487200E-02  1.6904600E-02   4.908237       14.82326    
  1.6904600E-02  1.7332500E-02   4.056413       11.20840    
  1.7332500E-02  1.7771300E-02   4.298587       10.38432    
  1.7771300E-02  1.8221200E-02   3.998080       12.24297    
  1.8221200E-02  1.8682500E-02   4.409004       13.83646    
  1.8682500E-02  1.9155400E-02   4.373110       12.46248    
  1.9155400E-02  1.9640300E-02   3.605440       8.401978    
  1.9640300E-02  2.0000000E-02   3.726012       15.70971    
