 # Detector n:  1  HeIInflux 
 # N. of energy intervals 260
  1.0000100E-14  2.0000000E-13  3.3716290E+10   15.45832    
  2.0000000E-13  2.9297300E-13  7.4418315E+10   20.51838    
  2.9297300E-13  4.2916701E-13  8.8370643E+10   10.74659    
  4.2916701E-13  6.2867300E-13  1.5025213E+11   8.983940    
  6.2867300E-13  9.2092198E-13  2.1578652E+11   3.831638    
  9.2092198E-13  1.3490300E-12  3.1129210E+11   5.699006    
  1.3490300E-12  1.9761499E-12  4.1739541E+11   2.509058    
  1.9761499E-12  2.8947901E-12  5.5717246E+11   1.790337    
  2.8947901E-12  4.2404799E-12  6.6818068E+11   1.707005    
  4.2404799E-12  6.2117499E-12  7.5046650E+11   1.501184    
  6.2117499E-12  9.0993801E-12  7.7979497E+11  0.9600506    
  9.0993801E-12  1.3329400E-11  6.9529010E+11   1.157509    
  1.3329400E-11  1.9525799E-11  5.2866528E+11  0.9126600    
  1.9525799E-11  2.8602700E-11  3.1879276E+11   1.331813    
  2.8602700E-11  4.1899099E-11  1.4834426E+11   1.848721    
  4.1899099E-11  6.1376598E-11  5.8531467E+10   1.424953    
  6.1376598E-11  8.9908601E-11  2.5905455E+10   1.494982    
  8.9908601E-11  1.3170399E-10  1.3247626E+10   2.022843    
  1.3170399E-10  1.9292901E-10  7.6403441E+09   1.159927    
  1.9292901E-10  2.8261499E-10  4.8440786E+09  0.8648428    
  2.8261499E-10  4.1399401E-10  3.2236454E+09  0.7550375    
  4.1399401E-10  5.3157900E-10  2.3263662E+09   1.156532    
  5.3157900E-10  6.2506200E-10  1.9154418E+09   1.009099    
  6.2506200E-10  6.8256001E-10  1.6073953E+09   1.711084    
  6.8256001E-10  8.3368101E-10  1.4043077E+09  0.6007336    
  8.3368101E-10  8.7642499E-10  1.2416906E+09   1.635659    
  8.7642499E-10  1.1253500E-09  1.0855743E+09   1.121996    
  1.1253500E-09  1.4449800E-09  8.5364320E+08  0.9494354    
  1.4449800E-09  1.8553900E-09  6.5155674E+08  0.8727876    
  1.8553900E-09  2.3823701E-09  5.1540298E+08  0.7847691    
  2.3823701E-09  3.0590199E-09  4.0424675E+08  0.8050116    
  3.0590199E-09  3.9278598E-09  3.0725386E+08  0.7612709    
  3.9278598E-09  5.0434799E-09  2.4232418E+08  0.9435748    
  5.0434799E-09  6.4759500E-09  1.8870195E+08  0.7895021    
  6.4759500E-09  8.3152898E-09  1.4754176E+08  0.5843620    
  8.3152898E-09  1.0677000E-08  1.1481646E+08  0.8583811    
  1.0677000E-08  1.3709600E-08  9.0624648E+07  0.7426635    
  1.3709600E-08  1.7603501E-08  7.0461664E+07  0.7553485    
  1.7603501E-08  2.2603301E-08  5.4669756E+07  0.5837187    
  2.2603301E-08  2.9023200E-08  4.3124576E+07  0.7561340    
  2.9023200E-08  3.7266499E-08  3.3454648E+07  0.6634915    
  3.7266499E-08  4.7851199E-08  2.6129914E+07  0.8687726    
  4.7851199E-08  6.1442101E-08  2.0397992E+07  0.7783977    
  6.1442101E-08  7.8893301E-08  1.5916339E+07  0.7802163    
  7.8893301E-08  1.0130100E-07  1.2361745E+07  0.5765263    
  1.0130100E-07  1.3007300E-07   9435899.       1.133351    
  1.3007300E-07  1.6701701E-07   7487570.       1.061547    
  1.6701701E-07  2.1445400E-07   5784104.       1.265849    
  2.1445400E-07  2.7536399E-07   4491434.      0.8092700    
  2.7536399E-07  3.5357499E-07   3437560.      0.7143794    
  3.5357499E-07  4.5399901E-07   2691076.      0.7904637    
  4.5399901E-07  5.8294700E-07   2068770.      0.5610998    
  5.8294700E-07  7.4851800E-07   1569939.       1.051601    
  7.4851800E-07  9.6111603E-07   1242172.      0.8647483    
  9.6111603E-07  1.2341000E-06   950008.2      0.9413990    
  1.2341000E-06  1.3638900E-06   799524.7       1.368235    
  1.3638900E-06  1.5073300E-06   709556.9       1.431243    
  1.5073300E-06  1.5846100E-06   670679.4       1.902564    
  1.5846100E-06  1.6658601E-06   646129.5       2.065252    
  1.6658601E-06  1.8410600E-06   572380.1       1.291552    
  1.8410600E-06  2.0346799E-06   520854.6       1.052014    
  2.0346799E-06  2.2486699E-06   453221.4       1.372555    
  2.2486699E-06  2.4851699E-06   429162.6       1.156106    
  2.4851699E-06  2.6125899E-06   376914.8       1.886433    
  2.6125899E-06  2.7465401E-06   361495.3       1.620063    
  2.7465401E-06  2.8634900E-06   359787.1       2.004378    
  2.8634900E-06  3.0353899E-06   330431.5       1.159370    
  3.0353899E-06  3.3546301E-06   303312.2       1.146866    
  3.3546301E-06  3.7074401E-06   271664.9       1.388866    
  3.7074401E-06  4.0973500E-06   242722.6       1.348449    
  4.0973500E-06  4.3074201E-06   225863.2       2.206677    
  4.3074201E-06  4.5282700E-06   211518.6       1.445961    
  4.5282700E-06  5.0045101E-06   192646.6       1.589229    
  5.0045101E-06  5.5308401E-06   188988.7      0.8503978    
  5.5308401E-06  6.2672698E-06   137215.5       1.144925    
  6.2672698E-06  7.1017398E-06   136835.3       1.465451    
  7.1017398E-06  8.0473301E-06   120164.5      0.7736090    
  8.0473301E-06  9.1188203E-06   104317.4       1.068542    
  9.1188203E-06  1.0333000E-05   89089.77       1.272070    
  1.0333000E-05  1.1708800E-05   79762.33       1.665970    
  1.1708800E-05  1.3267800E-05   67930.48       1.584123    
  1.3267800E-05  1.5034400E-05   58405.75      0.8414704    
  1.5034400E-05  1.7036200E-05   50138.20       1.604275    
  1.7036200E-05  1.9304500E-05   44223.93       1.071920    
  1.9304500E-05  2.1334799E-05   39087.43       1.476585    
  2.1334799E-05  2.1874899E-05   35754.63       2.725886    
  2.1874899E-05  2.3578599E-05   33886.05       1.504614    
  2.3578599E-05  2.4175501E-05   31733.89       2.862717    
  2.4175501E-05  2.4787500E-05   30357.91       1.724757    
  2.4787500E-05  2.6058400E-05   30887.57       1.350834    
  2.6058400E-05  2.8087899E-05   29113.26       1.524821    
  2.8087899E-05  3.1827800E-05   31199.67       1.249452    
  3.1827800E-05  3.4306700E-05   20250.68       1.730174    
  3.4306700E-05  3.5175199E-05   10655.08       4.529050    
  3.5175199E-05  3.6065601E-05   9775.917       3.831939    
  3.6065601E-05  4.0867701E-05   12670.75       1.223726    
  4.0867701E-05  4.6309200E-05   14349.43      0.9419198    
  4.6309200E-05  5.2475199E-05   13258.61       1.345370    
  5.2475199E-05  5.6562199E-05   11372.46       1.262397    
  5.6562199E-05  5.9462200E-05   10784.37       1.210382    
  5.9462200E-05  6.2510902E-05   10320.00       2.864762    
  6.2510902E-05  6.7379500E-05   9570.725       2.779240    
  6.7379500E-05  7.6350902E-05   9641.202       1.061867    
  7.6350902E-05  8.6516899E-05   6902.867       1.299256    
  8.6516899E-05  9.8036500E-05   4009.574       1.535435    
  9.8036500E-05  1.1109000E-04   4770.207       1.779591    
  1.1109000E-04  1.1678600E-04   4802.052       2.503073    
  1.1678600E-04  1.2277300E-04   3532.916       2.777518    
  1.2277300E-04  1.2906799E-04   4805.981       2.729808    
  1.2906799E-04  1.3568600E-04   4804.832       2.400719    
  1.3568600E-04  1.4264201E-04   3640.452       2.444517    
  1.4264201E-04  1.4995600E-04   2621.517       2.850250    
  1.4995600E-04  1.5764400E-04   2435.058       2.590034    
  1.5764400E-04  1.6163501E-04   2139.104       5.331313    
  1.6163501E-04  1.6572700E-04   2653.207       3.524220    
  1.6572700E-04  1.6992200E-04   2475.127       3.702086    
  1.6992200E-04  1.7422400E-04   2691.101       3.553344    
  1.7422400E-04  1.8315599E-04   2609.942       2.398650    
  1.8315599E-04  1.9254700E-04   2386.950       2.099716    
  1.9254700E-04  2.0241900E-04   2293.239       2.465965    
  2.0241900E-04  2.1279699E-04   1752.969       2.623140    
  2.1279699E-04  2.2370800E-04   1733.049       3.027718    
  2.2370800E-04  2.3517800E-04   1733.023       2.863347    
  2.3517800E-04  2.4723500E-04   1720.247       2.202935    
  2.4723500E-04  2.5991100E-04   1795.593       2.642112    
  2.5991100E-04  2.7323700E-04   1766.760       3.258500    
  2.7323700E-04  2.8015400E-04   1527.981       3.929178    
  2.8015400E-04  2.8724599E-04   1243.036       3.914779    
  2.8724599E-04  2.9451799E-04   1177.419       4.567513    
  2.9451799E-04  3.0197401E-04   1246.768       3.766749    
  3.0197401E-04  3.0961799E-04   1225.531       4.410121    
  3.0961799E-04  3.1745600E-04   1039.418       3.801293    
  3.1745600E-04  3.3373301E-04   1145.856       3.811872    
  3.3373301E-04  3.5084400E-04   1167.021       2.604459    
  3.5084400E-04  3.6883200E-04   988.7667       3.567340    
  3.6883200E-04  3.8774201E-04   892.7272       3.481913    
  3.8774201E-04  4.0762199E-04   906.1522       2.879590    
  4.0762199E-04  4.2852099E-04   749.9263       3.050654    
  4.2852099E-04  4.5049199E-04   696.4563       2.966775    
  4.5049199E-04  4.7358900E-04   644.5428       3.427785    
  4.7358900E-04  4.9787102E-04   612.7532       2.683250    
  4.9787102E-04  5.1047403E-04   598.8408       4.601583    
  5.1047403E-04  5.2339700E-04   683.0619       3.128996    
  5.2339700E-04  5.3664698E-04   501.1832       8.086364    
  5.3664698E-04  5.5023201E-04   506.3973       4.076077    
  5.5023201E-04  5.7844300E-04   476.0176       3.608632    
  5.7844300E-04  6.0810102E-04   482.2108       3.933452    
  6.0810102E-04  6.3927902E-04   391.0482       3.756870    
  6.3927902E-04  6.7205500E-04   332.8910       3.903441    
  6.7205500E-04  7.0651202E-04   354.0206       3.555071    
  7.0651202E-04  7.4273598E-04   316.8167       3.093278    
  7.4273598E-04  7.8081700E-04   260.3535       3.245275    
  7.8081700E-04  8.2085002E-04   209.3132       3.998123    
  8.2085002E-04  8.6293602E-04   197.2997       3.769336    
  8.6293602E-04  9.0717903E-04   178.7284       4.295522    
  9.0717903E-04  9.5369201E-04   175.9333       3.702078    
  9.5369201E-04  9.6163998E-04   163.0669       8.159366    
  9.6163998E-04  9.7783399E-04   173.8441       5.106889    
  9.7783399E-04  1.0025901E-03   144.8077       5.704979    
  1.0025901E-03  1.0539900E-03   142.7261       2.988975    
  1.0539900E-03  1.1080300E-03   119.8815       2.974949    
  1.1080300E-03  1.1648400E-03   108.5470       4.116927    
  1.1648400E-03  1.1943300E-03   97.71595       5.717533    
  1.1943300E-03  1.2245600E-03   108.5779       5.569887    
  1.2245600E-03  1.2873500E-03   109.2077       3.766837    
  1.2873500E-03  1.3533500E-03   102.0430       4.303330    
  1.3533500E-03  1.4227401E-03   100.5586       4.720867    
  1.4227401E-03  1.4956900E-03   87.19332       4.255486    
  1.4956900E-03  1.5335500E-03   82.66214       6.764428    
  1.5335500E-03  1.5723699E-03   74.21822       7.125817    
  1.5723699E-03  1.6121800E-03   78.70424       5.811343    
  1.6121800E-03  1.6529900E-03   86.18587       6.862396    
  1.6529900E-03  1.7377400E-03   77.84574       4.164439    
  1.7377400E-03  1.8268300E-03   68.18352       2.717713    
  1.8268300E-03  1.8730800E-03   71.99348       6.395449    
  1.8730800E-03  1.9205000E-03   65.26587       7.950287    
  1.9205000E-03  1.9691200E-03   60.81546       7.487133    
  1.9691200E-03  2.0189700E-03   62.70581       5.814297    
  2.0189700E-03  2.1224800E-03   56.37445       5.311288    
  2.1224800E-03  2.2313001E-03   52.52025       4.332205    
  2.2313001E-03  2.2688799E-03   48.04715       8.938073    
  2.2688799E-03  2.3068599E-03   50.97742       7.702501    
  2.3068599E-03  2.3457000E-03   45.56266       9.483638    
  2.3457000E-03  2.3652499E-03   43.78374       10.51385    
  2.3652499E-03  2.3852000E-03   50.88998       11.37952    
  2.3852000E-03  2.4251300E-03   52.72257       9.636892    
  2.4251300E-03  2.4659701E-03   46.56770       10.06964    
  2.4659701E-03  2.5923999E-03   40.34747       5.789103    
  2.5923999E-03  2.7253199E-03   33.62835       6.436228    
  2.7253199E-03  2.8650500E-03   30.24755       6.764062    
  2.8650500E-03  3.0119400E-03   26.19399       6.476686    
  3.0119400E-03  3.0881900E-03   26.56550       9.132755    
  3.0881900E-03  3.1663701E-03   21.62890       7.772739    
  3.1663701E-03  3.2465300E-03   24.26806       5.231338    
  3.2465300E-03  3.3287101E-03   21.91905       11.18063    
  3.3287101E-03  3.4993801E-03   20.04925       8.104837    
  3.4993801E-03  3.6787901E-03   18.95311       6.304896    
  3.6787901E-03  3.8674099E-03   17.90229       6.127752    
  3.8674099E-03  4.0656999E-03   17.92293       4.368333    
  4.0656999E-03  4.2741499E-03   16.55433       5.909069    
  4.2741499E-03  4.4932901E-03   14.23191       4.301800    
  4.4932901E-03  4.6070400E-03   12.91097       9.891969    
  4.6070400E-03  4.7236700E-03   15.21012       9.346749    
  4.7236700E-03  4.8432499E-03   12.07823       8.838095    
  4.8432499E-03  4.9658502E-03   12.44262       9.534422    
  4.9658502E-03  5.2204598E-03   11.32182       8.257217    
  5.2204598E-03  5.4881200E-03   11.09832       7.661463    
  5.4881200E-03  5.7695000E-03   10.30536       5.910732    
  5.7695000E-03  5.9155500E-03   11.43034       7.075321    
  5.9155500E-03  6.0653100E-03   8.456769       7.506335    
  6.0653100E-03  6.2188501E-03   8.655106       8.657190    
  6.2188501E-03  6.3762800E-03   7.310078       8.686819    
  6.3762800E-03  6.5377001E-03   8.289009       11.72992    
  6.5377001E-03  6.5923799E-03   9.438645       18.20982    
  6.5923799E-03  6.6475999E-03   8.392209       20.42814    
  6.6475999E-03  6.7031998E-03   6.994112       15.80850    
  6.7031998E-03  6.8728901E-03   7.108510       11.53504    
  6.8728901E-03  7.0468802E-03   6.518547       12.19343    
  7.0468802E-03  7.2252699E-03   7.551097       12.09888    
  7.2252699E-03  7.4081798E-03   6.086535       13.03900    
  7.4081798E-03  7.5957198E-03   6.707358       8.085715    
  7.5957198E-03  7.7880099E-03   6.623288       10.08666    
  7.7880099E-03  7.9851598E-03   5.342788       10.58427    
  7.9851598E-03  8.1873098E-03   6.069625       8.928611    
  8.1873098E-03  8.3945701E-03   5.660296       10.42264    
  8.3945701E-03  8.6070802E-03   5.117388       9.943265    
  8.6070802E-03  8.8249696E-03   5.376288       9.270253    
  8.8249696E-03  9.0483697E-03   4.652738       11.92904    
  9.0483697E-03  9.2774397E-03   4.495174       7.635920    
  9.2774397E-03  9.5122904E-03   4.448513       9.072303    
  9.5122904E-03  9.7530996E-03   4.132304       8.580756    
  9.7530996E-03  9.9999998E-03   4.699792       12.02698    
  9.9999998E-03  1.0253200E-02   4.616495       12.03080    
  1.0253200E-02  1.0512700E-02   4.655016       11.14420    
  1.0512700E-02  1.0778800E-02   5.381463       9.985487    
  1.0778800E-02  1.1051700E-02   3.818262       11.75358    
  1.1051700E-02  1.1331500E-02   3.476306       15.13915    
  1.1331500E-02  1.1618300E-02   3.644718       10.31155    
  1.1618300E-02  1.1912500E-02   4.466105       11.11601    
  1.1912500E-02  1.2214000E-02   3.811356       10.55732    
  1.2214000E-02  1.2523200E-02   2.929205       11.70844    
  1.2523200E-02  1.2840200E-02   3.327401       11.18236    
  1.2840200E-02  1.3165300E-02   3.263451       12.34801    
  1.3165300E-02  1.3498600E-02   2.625299       15.00384    
  1.3498600E-02  1.3840300E-02   2.907515       12.29122    
  1.3840300E-02  1.4190700E-02   2.795329       13.94922    
  1.4190700E-02  1.4549900E-02   3.043086       10.64914    
  1.4549900E-02  1.4918300E-02   2.424513       14.52646    
  1.4918300E-02  1.5295900E-02   2.588501       10.43769    
  1.5295900E-02  1.5683100E-02   2.411866       12.11704    
  1.5683100E-02  1.6080100E-02   2.422101       14.92772    
  1.6080100E-02  1.6487200E-02   2.613522       12.67906    
  1.6487200E-02  1.6904600E-02   2.234119       12.12537    
  1.6904600E-02  1.7332500E-02   2.254125       11.02819    
  1.7332500E-02  1.7771300E-02   2.156854       9.287185    
  1.7771300E-02  1.8221200E-02   1.982253       12.64041    
  1.8221200E-02  1.8682500E-02   1.900377       13.14138    
  1.8682500E-02  1.9155400E-02   1.909113       10.63980    
  1.9155400E-02  1.9640300E-02   1.618042       16.58065    
  1.9640300E-02  2.0000000E-02   1.624587       16.37958    
