 # Detector n:  1  HeIInflux 
 # N. of energy intervals 260
  1.0000100E-14  2.0000000E-13  1.1524610E+11   15.75771    
  2.0000000E-13  2.9297300E-13  1.9645576E+11   10.34965    
  2.9297300E-13  4.2916701E-13  2.8899777E+11   10.47973    
  4.2916701E-13  6.2867300E-13  4.2570626E+11   6.193025    
  6.2867300E-13  9.2092198E-13  6.0070422E+11   3.732356    
  9.2092198E-13  1.3490300E-12  8.0697052E+11   2.729147    
  1.3490300E-12  1.9761499E-12  1.0590327E+12   3.071235    
  1.9761499E-12  2.8947901E-12  1.3981555E+12   1.640536    
  2.8947901E-12  4.2404799E-12  1.6329466E+12   1.460732    
  4.2404799E-12  6.2117499E-12  1.8567104E+12  0.9823674    
  6.2117499E-12  9.0993801E-12  1.8761699E+12  0.9908490    
  9.0993801E-12  1.3329400E-11  1.7066067E+12  0.5869570    
  1.3329400E-11  1.9525799E-11  1.2701662E+12  0.6897539    
  1.9525799E-11  2.8602700E-11  7.6262166E+11  0.9140642    
  2.8602700E-11  4.1899099E-11  3.4856370E+11  0.6026011    
  4.1899099E-11  6.1376598E-11  1.3484863E+11   1.254107    
  6.1376598E-11  8.9908601E-11  5.6874107E+10   1.292245    
  8.9908601E-11  1.3170399E-10  2.6609342E+10   1.269701    
  1.3170399E-10  1.9292901E-10  1.4266657E+10   1.151965    
  1.9292901E-10  2.8261499E-10  8.6878659E+09  0.8429781    
  2.8261499E-10  4.1399401E-10  5.6369219E+09  0.7377954    
  4.1399401E-10  5.3157900E-10  4.0539592E+09  0.7637712    
  5.3157900E-10  6.2506200E-10  3.2850534E+09  0.8900712    
  6.2506200E-10  6.8256001E-10  2.8033692E+09   1.553734    
  6.8256001E-10  8.3368101E-10  2.4581873E+09   1.083672    
  8.3368101E-10  8.7642499E-10  2.1811702E+09   2.892872    
  8.7642499E-10  1.1253500E-09  1.8781652E+09  0.8106849    
  1.1253500E-09  1.4449800E-09  1.4335078E+09  0.9820465    
  1.4449800E-09  1.8553900E-09  1.1106103E+09  0.6375878    
  1.8553900E-09  2.3823701E-09  8.7428736E+08  0.7051044    
  2.3823701E-09  3.0590199E-09  6.8453933E+08  0.5919251    
  3.0590199E-09  3.9278598E-09  5.2641270E+08  0.8235401    
  3.9278598E-09  5.0434799E-09  4.0930179E+08  0.9043132    
  5.0434799E-09  6.4759500E-09  3.2022848E+08  0.7236243    
  6.4759500E-09  8.3152898E-09  2.5031715E+08  0.7866594    
  8.3152898E-09  1.0677000E-08  1.9096382E+08  0.5160623    
  1.0677000E-08  1.3709600E-08  1.4717467E+08  0.8490627    
  1.3709600E-08  1.7603501E-08  1.1597907E+08  0.7092853    
  1.7603501E-08  2.2603301E-08  9.0649248E+07  0.6076353    
  2.2603301E-08  2.9023200E-08  6.9660304E+07  0.6875736    
  2.9023200E-08  3.7266499E-08  5.4828416E+07  0.5404340    
  3.7266499E-08  4.7851199E-08  4.2689224E+07  0.7155359    
  4.7851199E-08  6.1442101E-08  3.3090712E+07  0.6021779    
  6.1442101E-08  7.8893301E-08  2.5570288E+07  0.8551589    
  7.8893301E-08  1.0130100E-07  1.9872334E+07  0.8648961    
  1.0130100E-07  1.3007300E-07  1.5515047E+07  0.7208227    
  1.3007300E-07  1.6701701E-07  1.1907879E+07  0.9025137    
  1.6701701E-07  2.1445400E-07   9280808.      0.5221150    
  2.1445400E-07  2.7536399E-07   7075920.      0.5990824    
  2.7536399E-07  3.5357499E-07   5489414.      0.6227452    
  3.5357499E-07  4.5399901E-07   4246272.      0.9631022    
  4.5399901E-07  5.8294700E-07   3272480.      0.7598884    
  5.8294700E-07  7.4851800E-07   2572228.      0.6505381    
  7.4851800E-07  9.6111603E-07   1945121.      0.5557855    
  9.6111603E-07  1.2341000E-06   1493745.      0.7985661    
  1.2341000E-06  1.3638900E-06   1220189.       1.679370    
  1.3638900E-06  1.5073300E-06   1108146.      0.9648812    
  1.5073300E-06  1.5846100E-06   1033642.       2.019060    
  1.5846100E-06  1.6658601E-06   981687.8       1.864203    
  1.6658601E-06  1.8410600E-06   882817.7       1.705880    
  1.8410600E-06  2.0346799E-06   800039.3      0.9948166    
  2.0346799E-06  2.2486699E-06   718976.6       1.385704    
  2.2486699E-06  2.4851699E-06   644268.2       1.120870    
  2.4851699E-06  2.6125899E-06   599517.8       1.965647    
  2.6125899E-06  2.7465401E-06   573554.8       1.283306    
  2.7465401E-06  2.8634900E-06   523198.6       2.092685    
  2.8634900E-06  3.0353899E-06   513016.3       1.746518    
  3.0353899E-06  3.3546301E-06   459245.1       1.157489    
  3.3546301E-06  3.7074401E-06   417071.0      0.9183431    
  3.7074401E-06  4.0973500E-06   386966.2       1.155574    
  4.0973500E-06  4.3074201E-06   351044.5       2.034251    
  4.3074201E-06  4.5282700E-06   328092.9       1.730826    
  4.5282700E-06  5.0045101E-06   309912.9       1.275093    
  5.0045101E-06  5.5308401E-06   297923.4       1.476535    
  5.5308401E-06  6.2672698E-06   216364.1      0.8563967    
  6.2672698E-06  7.1017398E-06   210609.1       1.098308    
  7.1017398E-06  8.0473301E-06   183286.0       1.175337    
  8.0473301E-06  9.1188203E-06   156874.1       1.028900    
  9.1188203E-06  1.0333000E-05   139090.2       1.144273    
  1.0333000E-05  1.1708800E-05   125095.1       1.086675    
  1.1708800E-05  1.3267800E-05   104241.8       1.168687    
  1.3267800E-05  1.5034400E-05   88797.38       1.092347    
  1.5034400E-05  1.7036200E-05   78738.38       1.627864    
  1.7036200E-05  1.9304500E-05   69864.73       1.033591    
  1.9304500E-05  2.1334799E-05   60240.66       1.562890    
  2.1334799E-05  2.1874899E-05   57586.52       2.641633    
  2.1874899E-05  2.3578599E-05   51695.98       1.406437    
  2.3578599E-05  2.4175501E-05   50663.93       2.615079    
  2.4175501E-05  2.4787500E-05   49274.05       2.502916    
  2.4787500E-05  2.6058400E-05   46735.35       2.144436    
  2.6058400E-05  2.8087899E-05   45400.08       1.280988    
  2.8087899E-05  3.1827800E-05   47115.43       1.201444    
  3.1827800E-05  3.4306700E-05   31585.30       2.049339    
  3.4306700E-05  3.5175199E-05   16198.98       3.680996    
  3.5175199E-05  3.6065601E-05   15478.22       4.980423    
  3.6065601E-05  4.0867701E-05   20986.91       1.648971    
  4.0867701E-05  4.6309200E-05   22021.37       2.107684    
  4.6309200E-05  5.2475199E-05   20387.37       1.403456    
  5.2475199E-05  5.6562199E-05   18045.86       1.943679    
  5.6562199E-05  5.9462200E-05   16770.97       2.631564    
  5.9462200E-05  6.2510902E-05   15838.45       2.155700    
  6.2510902E-05  6.7379500E-05   15377.13       2.526351    
  6.7379500E-05  7.6350902E-05   14473.79       1.602300    
  7.6350902E-05  8.6516899E-05   10998.12       2.174708    
  8.6516899E-05  9.8036500E-05   6901.500       1.773121    
  9.8036500E-05  1.1109000E-04   7693.112       1.375620    
  1.1109000E-04  1.1678600E-04   7394.836       2.372963    
  1.1678600E-04  1.2277300E-04   5427.261       2.172320    
  1.2277300E-04  1.2906799E-04   7511.293       2.873882    
  1.2906799E-04  1.3568600E-04   7302.815       2.501589    
  1.3568600E-04  1.4264201E-04   5728.152       2.220860    
  1.4264201E-04  1.4995600E-04   4595.984       2.755472    
  1.4995600E-04  1.5764400E-04   3834.235       2.219425    
  1.5764400E-04  1.6163501E-04   3275.874       4.414751    
  1.6163501E-04  1.6572700E-04   3981.319       4.134141    
  1.6572700E-04  1.6992200E-04   4108.621       4.070556    
  1.6992200E-04  1.7422400E-04   4072.879       2.991521    
  1.7422400E-04  1.8315599E-04   3941.629       2.348184    
  1.8315599E-04  1.9254700E-04   3968.584       2.125137    
  1.9254700E-04  2.0241900E-04   3654.379       1.821867    
  2.0241900E-04  2.1279699E-04   2871.481       3.000359    
  2.1279699E-04  2.2370800E-04   2823.739       2.862440    
  2.2370800E-04  2.3517800E-04   2778.380       1.677368    
  2.3517800E-04  2.4723500E-04   2601.348       2.648840    
  2.4723500E-04  2.5991100E-04   2669.709       2.666590    
  2.5991100E-04  2.7323700E-04   2728.631       2.591289    
  2.7323700E-04  2.8015400E-04   2488.505       4.141216    
  2.8015400E-04  2.8724599E-04   2035.468       3.779243    
  2.8724599E-04  2.9451799E-04   1887.406       3.823857    
  2.9451799E-04  3.0197401E-04   2139.190       4.472608    
  3.0197401E-04  3.0961799E-04   1918.667       4.764233    
  3.0961799E-04  3.1745600E-04   1921.342       2.846368    
  3.1745600E-04  3.3373301E-04   1833.875       2.441335    
  3.3373301E-04  3.5084400E-04   1790.101       3.272211    
  3.5084400E-04  3.6883200E-04   1538.677       2.647638    
  3.6883200E-04  3.8774201E-04   1437.867       2.678034    
  3.8774201E-04  4.0762199E-04   1368.834       2.038324    
  4.0762199E-04  4.2852099E-04   1136.604       3.317997    
  4.2852099E-04  4.5049199E-04   1050.846       3.450230    
  4.5049199E-04  4.7358900E-04   999.4788       2.397579    
  4.7358900E-04  4.9787102E-04   940.5566       2.775675    
  4.9787102E-04  5.1047403E-04   950.2275       4.992803    
  5.1047403E-04  5.2339700E-04   967.1010       4.793047    
  5.2339700E-04  5.3664698E-04   695.0751       4.977560    
  5.3664698E-04  5.5023201E-04   847.8955       4.314433    
  5.5023201E-04  5.7844300E-04   696.4136       2.420517    
  5.7844300E-04  6.0810102E-04   639.2402       2.879768    
  6.0810102E-04  6.3927902E-04   625.3234       3.712178    
  6.3927902E-04  6.7205500E-04   509.1263       2.731295    
  6.7205500E-04  7.0651202E-04   487.5685       3.780597    
  7.0651202E-04  7.4273598E-04   429.0893       4.041430    
  7.4273598E-04  7.8081700E-04   363.8083       3.266565    
  7.8081700E-04  8.2085002E-04   290.9123       2.422921    
  8.2085002E-04  8.6293602E-04   261.6599       3.834550    
  8.6293602E-04  9.0717903E-04   241.5034       3.849596    
  9.0717903E-04  9.5369201E-04   238.3791       3.202213    
  9.5369201E-04  9.6163998E-04   189.5876       4.218510    
  9.6163998E-04  9.7783399E-04   208.1394       4.219611    
  9.7783399E-04  1.0025901E-03   192.1920       5.499920    
  1.0025901E-03  1.0539900E-03   178.2417       2.947745    
  1.0539900E-03  1.1080300E-03   163.5494       3.203328    
  1.1080300E-03  1.1648400E-03   146.1234       3.180474    
  1.1648400E-03  1.1943300E-03   141.4357       4.234317    
  1.1943300E-03  1.2245600E-03   151.5861       4.131754    
  1.2245600E-03  1.2873500E-03   142.3742       4.771529    
  1.2873500E-03  1.3533500E-03   128.1539       3.312146    
  1.3533500E-03  1.4227401E-03   126.1448       2.124171    
  1.4227401E-03  1.4956900E-03   121.4584       2.626329    
  1.4956900E-03  1.5335500E-03   131.5345       3.102936    
  1.5335500E-03  1.5723699E-03   117.4875       5.240247    
  1.5723699E-03  1.6121800E-03   112.8297       6.104599    
  1.6121800E-03  1.6529900E-03   111.8454       4.728414    
  1.6529900E-03  1.7377400E-03   99.99386       4.680501    
  1.7377400E-03  1.8268300E-03   103.4507       4.709957    
  1.8268300E-03  1.8730800E-03   100.3222       4.623383    
  1.8730800E-03  1.9205000E-03   102.0280       3.972861    
  1.9205000E-03  1.9691200E-03   94.34252       7.350600    
  1.9691200E-03  2.0189700E-03   94.81987       5.557922    
  2.0189700E-03  2.1224800E-03   92.55820       5.059541    
  2.1224800E-03  2.2313001E-03   86.70571       4.316645    
  2.2313001E-03  2.2688799E-03   79.60581       10.12723    
  2.2688799E-03  2.3068599E-03   72.05618       7.433715    
  2.3068599E-03  2.3457000E-03   79.14990       7.362739    
  2.3457000E-03  2.3652499E-03   76.88703       10.44107    
  2.3652499E-03  2.3852000E-03   80.97704       9.849619    
  2.3852000E-03  2.4251300E-03   70.72588       6.399930    
  2.4251300E-03  2.4659701E-03   68.52740       10.07534    
  2.4659701E-03  2.5923999E-03   58.44236       4.793195    
  2.5923999E-03  2.7253199E-03   58.20123       5.300870    
  2.7253199E-03  2.8650500E-03   49.36501       4.991905    
  2.8650500E-03  3.0119400E-03   43.28061       5.609375    
  3.0119400E-03  3.0881900E-03   42.61317       7.596805    
  3.0881900E-03  3.1663701E-03   39.86289       5.814181    
  3.1663701E-03  3.2465300E-03   37.26092       7.992906    
  3.2465300E-03  3.3287101E-03   40.16359       6.440815    
  3.3287101E-03  3.4993801E-03   33.55408       6.395908    
  3.4993801E-03  3.6787901E-03   33.85917       6.368543    
  3.6787901E-03  3.8674099E-03   27.92809       6.510239    
  3.8674099E-03  4.0656999E-03   29.59936       3.713840    
  4.0656999E-03  4.2741499E-03   26.55442       9.061276    
  4.2741499E-03  4.4932901E-03   23.60686       4.787722    
  4.4932901E-03  4.6070400E-03   25.42059       9.801091    
  4.6070400E-03  4.7236700E-03   21.38138       7.665722    
  4.7236700E-03  4.8432499E-03   24.18780       11.62670    
  4.8432499E-03  4.9658502E-03   21.14060       6.048769    
  4.9658502E-03  5.2204598E-03   18.91867       4.547294    
  5.2204598E-03  5.4881200E-03   18.21771       6.134442    
  5.4881200E-03  5.7695000E-03   18.42033       6.993876    
  5.7695000E-03  5.9155500E-03   19.15887       7.661958    
  5.9155500E-03  6.0653100E-03   14.62041       8.548611    
  6.0653100E-03  6.2188501E-03   14.81154       7.827224    
  6.2188501E-03  6.3762800E-03   14.19850       13.32593    
  6.3762800E-03  6.5377001E-03   12.87524       9.953029    
  6.5377001E-03  6.5923799E-03   17.60898       13.25185    
  6.5923799E-03  6.6475999E-03   15.31277       13.42688    
  6.6475999E-03  6.7031998E-03   12.00523       16.59336    
  6.7031998E-03  6.8728901E-03   12.51997       8.114965    
  6.8728901E-03  7.0468802E-03   12.36402       10.80056    
  7.0468802E-03  7.2252699E-03   13.14703       8.751168    
  7.2252699E-03  7.4081798E-03   11.00318       11.57424    
  7.4081798E-03  7.5957198E-03   8.952564       8.829087    
  7.5957198E-03  7.7880099E-03   10.51873       11.85870    
  7.7880099E-03  7.9851598E-03   9.001968       7.764621    
  7.9851598E-03  8.1873098E-03   11.39802       5.868045    
  8.1873098E-03  8.3945701E-03   8.878132       10.62526    
  8.3945701E-03  8.6070802E-03   9.647995       12.81091    
  8.6070802E-03  8.8249696E-03   7.804460       12.04831    
  8.8249696E-03  9.0483697E-03   7.771207       11.19663    
  9.0483697E-03  9.2774397E-03   8.761045       11.96927    
  9.2774397E-03  9.5122904E-03   8.951509       12.68693    
  9.5122904E-03  9.7530996E-03   7.260931       9.262488    
  9.7530996E-03  9.9999998E-03   7.744430       13.39797    
  9.9999998E-03  1.0253200E-02   8.588889       10.09877    
  1.0253200E-02  1.0512700E-02   7.117235       13.01598    
  1.0512700E-02  1.0778800E-02   6.776992       13.70395    
  1.0778800E-02  1.1051700E-02   9.217038       10.98528    
  1.1051700E-02  1.1331500E-02   6.563448       12.02462    
  1.1331500E-02  1.1618300E-02   5.499364       8.483228    
  1.1618300E-02  1.1912500E-02   7.536255       8.901928    
  1.1912500E-02  1.2214000E-02   6.413702       10.57313    
  1.2214000E-02  1.2523200E-02   6.030938       10.17640    
  1.2523200E-02  1.2840200E-02   4.854674       11.39842    
  1.2840200E-02  1.3165300E-02   5.990486       11.25125    
  1.3165300E-02  1.3498600E-02   7.179645       10.79174    
  1.3498600E-02  1.3840300E-02   4.905349       12.17918    
  1.3840300E-02  1.4190700E-02   6.004421       15.15162    
  1.4190700E-02  1.4549900E-02   4.813094       14.33652    
  1.4549900E-02  1.4918300E-02   4.021905       14.09340    
  1.4918300E-02  1.5295900E-02   4.444447       16.38285    
  1.5295900E-02  1.5683100E-02   4.892167       10.91967    
  1.5683100E-02  1.6080100E-02   5.194176       10.79788    
  1.6080100E-02  1.6487200E-02   3.194924       12.78168    
  1.6487200E-02  1.6904600E-02   4.103042       12.17389    
  1.6904600E-02  1.7332500E-02   4.149539       14.98559    
  1.7332500E-02  1.7771300E-02   4.308808       7.856308    
  1.7771300E-02  1.8221200E-02   4.129972       12.70909    
  1.8221200E-02  1.8682500E-02   3.469779       15.11457    
  1.8682500E-02  1.9155400E-02   3.564304       10.35352    
  1.9155400E-02  1.9640300E-02   2.635409       9.550651    
  1.9640300E-02  2.0000000E-02   2.851677       18.59109    
