 # Detector n:  1  HeIInflux 
 # N. of energy intervals 260
  1.0000100E-14  2.0000000E-13  2.4073437E+10   13.51602    
  2.0000000E-13  2.9297300E-13  6.5435566E+10   23.96268    
  2.9297300E-13  4.2916701E-13  8.2576474E+10   14.89802    
  4.2916701E-13  6.2867300E-13  1.5749836E+11   11.09082    
  6.2867300E-13  9.2092198E-13  1.8120488E+11   10.73021    
  9.2092198E-13  1.3490300E-12  2.7028185E+11   3.154279    
  1.3490300E-12  1.9761499E-12  3.5647121E+11   5.405878    
  1.9761499E-12  2.8947901E-12  4.8366443E+11   4.700828    
  2.8947901E-12  4.2404799E-12  5.6661036E+11   1.342528    
  4.2404799E-12  6.2117499E-12  6.3787067E+11   1.393220    
  6.2117499E-12  9.0993801E-12  6.6459972E+11  0.6445996    
  9.0993801E-12  1.3329400E-11  6.2423944E+11   1.037120    
  1.3329400E-11  1.9525799E-11  4.8093066E+11   1.180354    
  1.9525799E-11  2.8602700E-11  2.9795693E+11   1.315762    
  2.8602700E-11  4.1899099E-11  1.4090491E+11   1.756018    
  4.1899099E-11  6.1376598E-11  5.6624095E+10   1.382481    
  6.1376598E-11  8.9908601E-11  2.2709809E+10   2.101704    
  8.9908601E-11  1.3170399E-10  7.3805885E+09   4.620888    
  1.3170399E-10  1.9292901E-10  2.7544512E+09   3.890713    
  1.9292901E-10  2.8261499E-10  1.1753240E+09   2.247340    
  2.8261499E-10  4.1399401E-10  6.5610739E+08   1.322606    
  4.1399401E-10  5.3157900E-10  4.4187914E+08   1.317739    
  5.3157900E-10  6.2506200E-10  3.4500822E+08   3.162567    
  6.2506200E-10  6.8256001E-10  2.9812544E+08   3.527440    
  6.8256001E-10  8.3368101E-10  2.5889275E+08   2.761838    
  8.3368101E-10  8.7642499E-10  2.4907653E+08   4.743759    
  8.7642499E-10  1.1253500E-09  1.8936181E+08   2.179771    
  1.1253500E-09  1.4449800E-09  1.4341968E+08   1.505570    
  1.4449800E-09  1.8553900E-09  1.0780594E+08   2.307086    
  1.8553900E-09  2.3823701E-09  8.2297872E+07   2.402664    
  2.3823701E-09  3.0590199E-09  6.3317724E+07   2.858267    
  3.0590199E-09  3.9278598E-09  4.8778340E+07   1.666264    
  3.9278598E-09  5.0434799E-09  3.6368712E+07   1.965693    
  5.0434799E-09  6.4759500E-09  2.7741612E+07   2.455858    
  6.4759500E-09  8.3152898E-09  2.1416698E+07   1.910469    
  8.3152898E-09  1.0677000E-08  1.6089426E+07   2.268939    
  1.0677000E-08  1.3709600E-08  1.2057293E+07   1.877523    
  1.3709600E-08  1.7603501E-08   9118218.       2.161846    
  1.7603501E-08  2.2603301E-08   6852112.       2.765037    
  2.2603301E-08  2.9023200E-08   5374622.       2.817516    
  2.9023200E-08  3.7266499E-08   3930298.       2.624583    
  3.7266499E-08  4.7851199E-08   3109534.       2.742281    
  4.7851199E-08  6.1442101E-08   2308799.       3.088628    
  6.1442101E-08  7.8893301E-08   1769888.       2.386565    
  7.8893301E-08  1.0130100E-07   1310454.       1.829469    
  1.0130100E-07  1.3007300E-07   974817.9       1.854854    
  1.3007300E-07  1.6701701E-07   744018.2       2.292625    
  1.6701701E-07  2.1445400E-07   551163.4       2.172436    
  2.1445400E-07  2.7536399E-07   419586.5       3.005084    
  2.7536399E-07  3.5357499E-07   312815.7       2.930696    
  3.5357499E-07  4.5399901E-07   230996.7       3.438486    
  4.5399901E-07  5.8294700E-07   159876.0       2.483113    
  5.8294700E-07  7.4851800E-07   127443.1       1.679689    
  7.4851800E-07  9.6111603E-07   96809.64       3.636509    
  9.6111603E-07  1.2341000E-06   68307.48       3.152007    
  1.2341000E-06  1.3638900E-06   58106.97       4.820149    
  1.3638900E-06  1.5073300E-06   46230.03       3.485297    
  1.5073300E-06  1.5846100E-06   42664.31       6.087741    
  1.5846100E-06  1.6658601E-06   38632.23       6.114440    
  1.6658601E-06  1.8410600E-06   40283.29       7.374127    
  1.8410600E-06  2.0346799E-06   33392.20       4.853606    
  2.0346799E-06  2.2486699E-06   30855.40       5.735179    
  2.2486699E-06  2.4851699E-06   26060.31       5.975074    
  2.4851699E-06  2.6125899E-06   23189.44       6.349236    
  2.6125899E-06  2.7465401E-06   24991.01       9.560142    
  2.7465401E-06  2.8634900E-06   21003.81       9.045815    
  2.8634900E-06  3.0353899E-06   22589.38       6.373661    
  3.0353899E-06  3.3546301E-06   20563.50       5.025493    
  3.3546301E-06  3.7074401E-06   18227.18       5.659758    
  3.7074401E-06  4.0973500E-06   13239.51       5.406919    
  4.0973500E-06  4.3074201E-06   13802.93       6.339138    
  4.3074201E-06  4.5282700E-06   13091.92       6.647812    
  4.5282700E-06  5.0045101E-06   11746.94       4.702950    
  5.0045101E-06  5.5308401E-06   11045.92       3.890511    
  5.5308401E-06  6.2672698E-06   7717.522       5.214097    
  6.2672698E-06  7.1017398E-06   7434.557       6.062149    
  7.1017398E-06  8.0473301E-06   6612.059       3.509152    
  8.0473301E-06  9.1188203E-06   6015.692       4.659352    
  9.1188203E-06  1.0333000E-05   5130.451       6.386134    
  1.0333000E-05  1.1708800E-05   4551.490       6.005779    
  1.1708800E-05  1.3267800E-05   3348.457       6.249723    
  1.3267800E-05  1.5034400E-05   2776.103       4.721494    
  1.5034400E-05  1.7036200E-05   2442.149       5.391964    
  1.7036200E-05  1.9304500E-05   2235.721       5.496121    
  1.9304500E-05  2.1334799E-05   2027.465       7.578933    
  2.1334799E-05  2.1874899E-05   1255.803       7.453667    
  2.1874899E-05  2.3578599E-05   1566.006       9.839663    
  2.3578599E-05  2.4175501E-05   1641.412       9.479227    
  2.4175501E-05  2.4787500E-05   1280.644       10.01050    
  2.4787500E-05  2.6058400E-05   1332.789       9.827559    
  2.6058400E-05  2.8087899E-05   1285.986       6.649691    
  2.8087899E-05  3.1827800E-05   1411.479       6.288661    
  3.1827800E-05  3.4306700E-05   872.6351       7.980725    
  3.4306700E-05  3.5175199E-05   635.5107       14.01035    
  3.5175199E-05  3.6065601E-05   541.3851       13.07897    
  3.6065601E-05  4.0867701E-05   555.6826       5.566890    
  4.0867701E-05  4.6309200E-05   591.4572       7.634385    
  4.6309200E-05  5.2475199E-05   610.0129       7.300776    
  5.2475199E-05  5.6562199E-05   398.2577       5.032178    
  5.6562199E-05  5.9462200E-05   376.1852       14.45330    
  5.9462200E-05  6.2510902E-05   376.6216       14.09264    
  6.2510902E-05  6.7379500E-05   387.9671       7.872148    
  6.7379500E-05  7.6350902E-05   383.0566       8.713319    
  7.6350902E-05  8.6516899E-05   318.3398       10.37365    
  8.6516899E-05  9.8036500E-05   182.4669       7.192641    
  9.8036500E-05  1.1109000E-04   201.9104       7.988854    
  1.1109000E-04  1.1678600E-04   194.4165       8.471004    
  1.1678600E-04  1.2277300E-04   127.0602       7.462848    
  1.2277300E-04  1.2906799E-04   177.2836       18.72806    
  1.2906799E-04  1.3568600E-04   162.2437       9.321732    
  1.3568600E-04  1.4264201E-04   147.3770       13.38635    
  1.4264201E-04  1.4995600E-04   87.33297       17.02265    
  1.4995600E-04  1.5764400E-04   101.4209       19.51517    
  1.5764400E-04  1.6163501E-04   60.48009       22.70554    
  1.6163501E-04  1.6572700E-04   97.66396       14.05007    
  1.6572700E-04  1.6992200E-04   105.3923       21.99735    
  1.6992200E-04  1.7422400E-04   58.68346       26.39776    
  1.7422400E-04  1.8315599E-04   105.9364       14.72666    
  1.8315599E-04  1.9254700E-04   92.38483       18.88906    
  1.9254700E-04  2.0241900E-04   92.01653       8.550068    
  2.0241900E-04  2.1279699E-04   74.78116       12.48160    
  2.1279699E-04  2.2370800E-04   71.99860       17.56199    
  2.2370800E-04  2.3517800E-04   73.17746       10.26310    
  2.3517800E-04  2.4723500E-04   61.34779       13.01479    
  2.4723500E-04  2.5991100E-04   78.18108       19.54837    
  2.5991100E-04  2.7323700E-04   95.25772       12.34153    
  2.7323700E-04  2.8015400E-04   75.04115       16.58913    
  2.8015400E-04  2.8724599E-04   50.49398       13.26648    
  2.8724599E-04  2.9451799E-04   59.20178       21.25117    
  2.9451799E-04  3.0197401E-04   45.84655       12.50714    
  3.0197401E-04  3.0961799E-04   50.30957       27.69816    
  3.0961799E-04  3.1745600E-04   48.49199       16.60840    
  3.1745600E-04  3.3373301E-04   44.04647       13.98599    
  3.3373301E-04  3.5084400E-04   40.15947       11.00390    
  3.5084400E-04  3.6883200E-04   42.72239       16.50069    
  3.6883200E-04  3.8774201E-04   31.65928       13.77445    
  3.8774201E-04  4.0762199E-04   43.70909       14.69037    
  4.0762199E-04  4.2852099E-04   32.47000       20.84493    
  4.2852099E-04  4.5049199E-04   35.52991       17.13626    
  4.5049199E-04  4.7358900E-04   43.31272       11.76758    
  4.7358900E-04  4.9787102E-04   36.87717       13.87051    
  4.9787102E-04  5.1047403E-04   19.25330       26.78682    
  5.1047403E-04  5.2339700E-04   28.10871       30.79313    
  5.2339700E-04  5.3664698E-04   23.20652       12.09148    
  5.3664698E-04  5.5023201E-04   30.07574       21.23201    
  5.5023201E-04  5.7844300E-04   24.62717       9.200421    
  5.7844300E-04  6.0810102E-04   20.31265       19.56797    
  6.0810102E-04  6.3927902E-04   26.30494       19.29006    
  6.3927902E-04  6.7205500E-04   22.25284       18.33016    
  6.7205500E-04  7.0651202E-04   16.51692       18.42523    
  7.0651202E-04  7.4273598E-04   16.94572       16.95317    
  7.4273598E-04  7.8081700E-04   12.01006       11.40023    
  7.8081700E-04  8.2085002E-04   12.29083       18.41971    
  8.2085002E-04  8.6293602E-04   9.025308       20.88134    
  8.6293602E-04  9.0717903E-04   10.85205       4.675103    
  9.0717903E-04  9.5369201E-04   11.08445       13.78978    
  9.5369201E-04  9.6163998E-04   12.26073       24.01329    
  9.6163998E-04  9.7783399E-04   9.000483       27.97569    
  9.7783399E-04  1.0025901E-03   8.774902       24.49594    
  1.0025901E-03  1.0539900E-03   6.975173       17.55571    
  1.0539900E-03  1.1080300E-03   8.473417       19.28617    
  1.1080300E-03  1.1648400E-03   6.857383       13.15137    
  1.1648400E-03  1.1943300E-03   7.213349       30.22358    
  1.1943300E-03  1.2245600E-03   5.396952       26.40806    
  1.2245600E-03  1.2873500E-03   8.098156       17.58276    
  1.2873500E-03  1.3533500E-03   5.885099       16.65610    
  1.3533500E-03  1.4227401E-03   7.025210       11.36159    
  1.4227401E-03  1.4956900E-03   8.367577       15.62925    
  1.4956900E-03  1.5335500E-03   9.887270       23.63100    
  1.5335500E-03  1.5723699E-03   7.425417       26.44298    
  1.5723699E-03  1.6121800E-03   6.123356       22.83906    
  1.6121800E-03  1.6529900E-03   6.006936       22.83807    
  1.6529900E-03  1.7377400E-03   6.412435       15.30065    
  1.7377400E-03  1.8268300E-03   7.110767       13.76087    
  1.8268300E-03  1.8730800E-03   7.157431       15.83366    
  1.8730800E-03  1.9205000E-03   6.071071       22.39984    
  1.9205000E-03  1.9691200E-03   6.540117       18.32515    
  1.9691200E-03  2.0189700E-03   7.117761       16.87548    
  2.0189700E-03  2.1224800E-03   6.631669       13.53606    
  2.1224800E-03  2.2313001E-03   6.840746       11.28066    
  2.2313001E-03  2.2688799E-03   6.405564       25.52837    
  2.2688799E-03  2.3068599E-03   5.670518       21.94394    
  2.3068599E-03  2.3457000E-03   7.260397       12.40136    
  2.3457000E-03  2.3652499E-03   2.756895       32.52823    
  2.3652499E-03  2.3852000E-03   6.482416       35.27039    
  2.3852000E-03  2.4251300E-03   5.317917       25.77938    
  2.4251300E-03  2.4659701E-03   6.920943       21.71984    
  2.4659701E-03  2.5923999E-03   5.775084       15.05207    
  2.5923999E-03  2.7253199E-03   4.903171       14.08486    
  2.7253199E-03  2.8650500E-03   5.190369       12.33762    
  2.8650500E-03  3.0119400E-03   4.663972       20.99294    
  3.0119400E-03  3.0881900E-03   3.840504       22.70358    
  3.0881900E-03  3.1663701E-03   4.018717       14.48337    
  3.1663701E-03  3.2465300E-03   5.322547       22.63735    
  3.2465300E-03  3.3287101E-03   4.672509       10.53099    
  3.3287101E-03  3.4993801E-03   4.771884       15.17811    
  3.4993801E-03  3.6787901E-03   3.197101       23.12311    
  3.6787901E-03  3.8674099E-03   3.816195       8.554816    
  3.8674099E-03  4.0656999E-03   4.280334       13.39973    
  4.0656999E-03  4.2741499E-03   4.215070       12.34475    
  4.2741499E-03  4.4932901E-03   3.390768       10.94743    
  4.4932901E-03  4.6070400E-03   4.598814       13.75200    
  4.6070400E-03  4.7236700E-03   2.263352       22.94934    
  4.7236700E-03  4.8432499E-03   3.203868       28.17943    
  4.8432499E-03  4.9658502E-03   3.561400       24.17164    
  4.9658502E-03  5.2204598E-03   2.992621       15.37027    
  5.2204598E-03  5.4881200E-03   2.550787       16.47557    
  5.4881200E-03  5.7695000E-03   2.989188       13.12989    
  5.7695000E-03  5.9155500E-03   2.693618       22.76002    
  5.9155500E-03  6.0653100E-03   2.871917       17.55903    
  6.0653100E-03  6.2188501E-03   2.230870       20.65111    
  6.2188501E-03  6.3762800E-03   1.727378       24.38233    
  6.3762800E-03  6.5377001E-03   2.018885       20.31036    
  6.5377001E-03  6.5923799E-03   1.905725       42.92558    
  6.5923799E-03  6.6475999E-03   2.207457       19.70495    
  6.6475999E-03  6.7031998E-03   3.925205       27.81949    
  6.7031998E-03  6.8728901E-03   1.758451       17.52952    
  6.8728901E-03  7.0468802E-03   1.690226       18.51104    
  7.0468802E-03  7.2252699E-03   2.168306       18.67020    
  7.2252699E-03  7.4081798E-03   1.776270       17.13992    
  7.4081798E-03  7.5957198E-03   1.512204       19.66865    
  7.5957198E-03  7.7880099E-03   2.055456       9.671968    
  7.7880099E-03  7.9851598E-03   1.795860       20.23976    
  7.9851598E-03  8.1873098E-03   1.602515       13.61025    
  8.1873098E-03  8.3945701E-03   1.042919       24.68939    
  8.3945701E-03  8.6070802E-03   1.587503       17.25255    
  8.6070802E-03  8.8249696E-03   1.731614       18.34425    
  8.8249696E-03  9.0483697E-03   1.490128       14.02688    
  9.0483697E-03  9.2774397E-03   1.128503       26.48975    
  9.2774397E-03  9.5122904E-03   1.343335       20.56486    
  9.5122904E-03  9.7530996E-03   1.449739       15.24172    
  9.7530996E-03  9.9999998E-03   1.435321       17.43257    
  9.9999998E-03  1.0253200E-02   1.057629       19.18044    
  1.0253200E-02  1.0512700E-02   1.072034       25.41639    
  1.0512700E-02  1.0778800E-02   1.389093       18.42059    
  1.0778800E-02  1.1051700E-02   1.375206       19.28777    
  1.1051700E-02  1.1331500E-02   1.564638       17.53599    
  1.1331500E-02  1.1618300E-02   1.076810       20.85897    
  1.1618300E-02  1.1912500E-02  0.8894550       17.93613    
  1.1912500E-02  1.2214000E-02   1.335310       17.47478    
  1.2214000E-02  1.2523200E-02   1.265647       22.37774    
  1.2523200E-02  1.2840200E-02  0.8051516       24.50774    
  1.2840200E-02  1.3165300E-02   1.600230       16.37275    
  1.3165300E-02  1.3498600E-02  0.7095876       30.40817    
  1.3498600E-02  1.3840300E-02  0.9615138       18.42125    
  1.3840300E-02  1.4190700E-02  0.9829555       22.62171    
  1.4190700E-02  1.4549900E-02   1.058556       29.06718    
  1.4549900E-02  1.4918300E-02  0.9948784       15.96060    
  1.4918300E-02  1.5295900E-02  0.8781544       22.54504    
  1.5295900E-02  1.5683100E-02  0.9653358       15.16837    
  1.5683100E-02  1.6080100E-02  0.4273950       33.42290    
  1.6080100E-02  1.6487200E-02   1.138841       15.90943    
  1.6487200E-02  1.6904600E-02  0.7391916       21.38752    
  1.6904600E-02  1.7332500E-02  0.6903033       25.89416    
  1.7332500E-02  1.7771300E-02  0.4762591       27.68820    
  1.7771300E-02  1.8221200E-02  0.6564072       29.37029    
  1.8221200E-02  1.8682500E-02  0.7737575       14.66576    
  1.8682500E-02  1.9155400E-02  0.4809904       28.58847    
  1.9155400E-02  1.9640300E-02  0.4116658       29.41343    
  1.9640300E-02  2.0000000E-02  0.5399820       33.46598    
