 # Detector n:            1   HeIInflux 
 # N. of energy intervals         260
  1.0000100E-14  2.0000000E-13  8.5442401E+09   2.555858    
  2.0000000E-13  2.9297300E-13  1.8935540E+10   2.384508    
  2.9297300E-13  4.2916701E-13  2.6763211E+10   1.604384    
  4.2916701E-13  6.2867300E-13  3.7311263E+10   1.126026    
  6.2867300E-13  9.2092198E-13  5.1889201E+10  0.8557301    
  9.2092198E-13  1.3490300E-12  6.8837999E+10  0.6655738    
  1.3490300E-12  1.9761499E-12  8.8059003E+10  0.4600954    
  1.9761499E-12  2.8947901E-12  1.1031088E+11  0.3465523    
  2.8947901E-12  4.2404799E-12  1.3134931E+11  0.2890349    
  4.2404799E-12  6.2117499E-12  1.4445226E+11  0.2266220    
  6.2117499E-12  9.0993801E-12  1.4640271E+11  0.2017144    
  9.0993801E-12  1.3329400E-11  1.3151616E+11  0.1731237    
  1.3329400E-11  1.9525799E-11  1.0251445E+11  0.1683708    
  1.9525799E-11  2.8602700E-11  6.6299429E+10  0.1726628    
  2.8602700E-11  4.1899099E-11  3.5559825E+10  0.1882051    
  4.1899099E-11  6.1376598E-11  1.6930766E+10  0.2142593    
  6.1376598E-11  8.9908601E-11  7.3466788E+09  0.2626281    
  8.9908601E-11  1.3170399E-10  2.6056911E+09  0.3322666    
  1.3170399E-10  1.9292901E-10  8.1093478E+08  0.4924145    
  1.9292901E-10  2.8261499E-10  3.0309488E+08  0.6274257    
  2.8261499E-10  4.1399401E-10  1.6215854E+08  0.7178954    
  4.1399401E-10  5.3157900E-10  1.0877163E+08  0.9089928    
  5.3157900E-10  6.2506200E-10  8.5032152E+07   1.174379    
  6.2506200E-10  6.8256001E-10  7.4583824E+07   1.553547    
  6.8256001E-10  8.3368101E-10  6.3744944E+07   1.053441    
  8.3368101E-10  8.7642499E-10  5.4158304E+07   1.873929    
  8.7642499E-10  1.1253500E-09  4.5679544E+07  0.9348183    
  1.1253500E-09  1.4449800E-09  3.5588584E+07  0.9546084    
  1.4449800E-09  1.8553900E-09  2.6644840E+07  0.9421551    
  1.8553900E-09  2.3823701E-09  2.0403334E+07  0.9131114    
  2.3823701E-09  3.0590199E-09  1.5260068E+07  0.9802609    
  3.0590199E-09  3.9278598E-09  1.1592668E+07   1.006446    
  3.9278598E-09  5.0434799E-09   8898527.      0.9832090    
  5.0434799E-09  6.4759500E-09   6749210.       1.035878    
  6.4759500E-09  8.3152898E-09   5176280.       1.005008    
  8.3152898E-09  1.0677000E-08   4020758.      0.9909437    
  1.0677000E-08  1.3709600E-08   3009883.       1.013263    
  1.3709600E-08  1.7603501E-08   2322582.       1.053705    
  1.7603501E-08  2.2603301E-08   1777296.       1.082743    
  2.2603301E-08  2.9023200E-08   1345460.       1.103580    
  2.9023200E-08  3.7266499E-08   1023180.       1.091244    
  3.7266499E-08  4.7851199E-08   780183.8       1.059284    
  4.7851199E-08  6.1442101E-08   598464.5       1.162528    
  6.1442101E-08  7.8893301E-08   449427.3       1.132495    
  7.8893301E-08  1.0130100E-07   340709.1       1.125685    
  1.0130100E-07  1.3007300E-07   259851.2       1.116606    
  1.3007300E-07  1.6701701E-07   198817.8       1.111506    
  1.6701701E-07  2.1445400E-07   147670.0       1.179499    
  2.1445400E-07  2.7536399E-07   110663.2       1.195545    
  2.7536399E-07  3.5357499E-07   84867.22       1.251161    
  3.5357499E-07  4.5399901E-07   62944.14       1.233104    
  4.5399901E-07  5.8294700E-07   46739.63       1.225547    
  5.8294700E-07  7.4851800E-07   35749.39       1.284022    
  7.4851800E-07  9.6111603E-07   27011.57       1.303128    
  9.6111603E-07  1.2341000E-06   20345.51       1.272565    
  1.2341000E-06  1.3638900E-06   17448.63       1.964638    
  1.3638900E-06  1.5073300E-06   15024.82       1.995654    
  1.5073300E-06  1.5846100E-06   13591.34       2.805844    
  1.5846100E-06  1.6658601E-06   14003.14       2.758294    
  1.6658601E-06  1.8410600E-06   11962.91       2.061221    
  1.8410600E-06  2.0346799E-06   11305.48       1.974983    
  2.0346799E-06  2.2486699E-06   9107.852       2.110338    
  2.2486699E-06  2.4851699E-06   8513.422       2.069604    
  2.4851699E-06  2.6125899E-06   7605.084       2.916165    
  2.6125899E-06  2.7465401E-06   6901.876       2.992340    
  2.7465401E-06  2.8634900E-06   7306.053       3.149702    
  2.8634900E-06  3.0353899E-06   6649.522       2.927949    
  3.0353899E-06  3.3546301E-06   5862.633       2.038970    
  3.3546301E-06  3.7074401E-06   5575.485       2.111824    
  3.7074401E-06  4.0973500E-06   4784.190       2.169538    
  4.0973500E-06  4.3074201E-06   4382.673       2.988957    
  4.3074201E-06  4.5282700E-06   3982.124       3.018252    
  4.5282700E-06  5.0045101E-06   3875.743       2.040826    
  5.0045101E-06  5.5308401E-06   3882.791       2.050587    
  5.5308401E-06  6.2672698E-06   2366.662       2.205870    
  6.2672698E-06  7.1017398E-06   2579.554       1.984729    
  7.1017398E-06  8.0473301E-06   2162.741       2.109004    
  8.0473301E-06  9.1188203E-06   1895.086       1.958027    
  9.1188203E-06  1.0333000E-05   1653.029       2.076396    
  1.0333000E-05  1.1708800E-05   1451.009       2.287159    
  1.1708800E-05  1.3267800E-05   1279.803       1.984155    
  1.3267800E-05  1.5034400E-05   1085.138       2.052966    
  1.5034400E-05  1.7036200E-05   975.0027       2.199020    
  1.7036200E-05  1.9304500E-05   832.0988       2.079002    
  1.9304500E-05  2.1334799E-05   737.1320       2.223687    
  2.1334799E-05  2.1874899E-05   646.8702       4.230826    
  2.1874899E-05  2.3578599E-05   665.5483       2.736004    
  2.3578599E-05  2.4175501E-05   668.9113       4.411117    
  2.4175501E-05  2.4787500E-05   704.2231       4.407625    
  2.4787500E-05  2.6058400E-05   625.6213       2.895557    
  2.6058400E-05  2.8087899E-05   549.8681       2.620092    
  2.8087899E-05  3.1827800E-05   604.4627       1.850218    
  3.1827800E-05  3.4306700E-05   348.7642       2.889524    
  3.4306700E-05  3.5175199E-05   183.1693       6.864084    
  3.5175199E-05  3.6065601E-05   152.0028       6.797896    
  3.6065601E-05  4.0867701E-05   212.8898       2.778077    
  4.0867701E-05  4.6309200E-05   261.3850       2.270866    
  4.6309200E-05  5.2475199E-05   264.7651       2.227735    
  5.2475199E-05  5.6562199E-05   225.4426       3.057693    
  5.6562199E-05  5.9462200E-05   211.5427       3.314328    
  5.9462200E-05  6.2510902E-05   213.0853       3.405785    
  6.2510902E-05  6.7379500E-05   210.4557       2.701561    
  6.7379500E-05  7.6350902E-05   216.4403       1.971590    
  7.6350902E-05  8.6516899E-05   147.7371       2.288035    
  8.6516899E-05  9.8036500E-05   83.82618       2.769315    
  9.8036500E-05  1.1109000E-04   108.0187       2.218726    
  1.1109000E-04  1.1678600E-04   107.3440       3.202219    
  1.1678600E-04  1.2277300E-04   83.76762       3.697637    
  1.2277300E-04  1.2906799E-04   122.5198       2.824822    
  1.2906799E-04  1.3568600E-04   112.8959       3.121659    
  1.3568600E-04  1.4264201E-04   92.67699       3.623859    
  1.4264201E-04  1.4995600E-04   65.86092       3.847572    
  1.4995600E-04  1.5764400E-04   61.91231       3.742525    
  1.5764400E-04  1.6163501E-04   44.53077       5.584370    
  1.6163501E-04  1.6572700E-04   64.22484       4.933079    
  1.6572700E-04  1.6992200E-04   61.99454       5.189318    
  1.6992200E-04  1.7422400E-04   60.75650       5.413883    
  1.7422400E-04  1.8315599E-04   70.97900       3.344919    
  1.8315599E-04  1.9254700E-04   62.48114       3.418117    
  1.9254700E-04  2.0241900E-04   60.05940       3.586298    
  2.0241900E-04  2.1279699E-04   47.61502       3.424506    
  2.1279699E-04  2.2370800E-04   50.89068       3.650122    
  2.2370800E-04  2.3517800E-04   48.88263       3.278366    
  2.3517800E-04  2.4723500E-04   52.44875       3.130349    
  2.4723500E-04  2.5991100E-04   53.21790       3.241794    
  2.5991100E-04  2.7323700E-04   54.52285       2.851068    
  2.7323700E-04  2.8015400E-04   46.02711       4.604831    
  2.8015400E-04  2.8724599E-04   37.55966       4.746316    
  2.8724599E-04  2.9451799E-04   39.22864       4.160981    
  2.9451799E-04  3.0197401E-04   43.43844       4.620829    
  3.0197401E-04  3.0961799E-04   44.70921       4.070231    
  3.0961799E-04  3.1745600E-04   39.81828       4.791244    
  3.1745600E-04  3.3373301E-04   32.64259       3.270422    
  3.3373301E-04  3.5084400E-04   37.03669       2.998130    
  3.5084400E-04  3.6883200E-04   34.66353       3.287024    
  3.6883200E-04  3.8774201E-04   30.74227       3.297228    
  3.8774201E-04  4.0762199E-04   28.52854       3.413477    
  4.0762199E-04  4.2852099E-04   24.05022       3.405359    
  4.2852099E-04  4.5049199E-04   22.66454       3.310922    
  4.5049199E-04  4.7358900E-04   22.33345       3.499259    
  4.7358900E-04  4.9787102E-04   20.91211       3.189689    
  4.9787102E-04  5.1047403E-04   20.03541       4.585197    
  5.1047403E-04  5.2339700E-04   22.06170       4.562974    
  5.2339700E-04  5.3664698E-04   17.38667       4.575713    
  5.3664698E-04  5.5023201E-04   19.09122       4.394942    
  5.5023201E-04  5.7844300E-04   15.99280       3.209584    
  5.7844300E-04  6.0810102E-04   16.67851       3.112594    
  6.0810102E-04  6.3927902E-04   15.39652       3.111651    
  6.3927902E-04  6.7205500E-04   13.42620       3.497836    
  6.7205500E-04  7.0651202E-04   11.47896       3.496001    
  7.0651202E-04  7.4273598E-04   10.64192       3.276549    
  7.4273598E-04  7.8081700E-04   9.216063       3.398666    
  7.8081700E-04  8.2085002E-04   8.575633       3.534513    
  8.2085002E-04  8.6293602E-04   7.223039       3.662603    
  8.6293602E-04  9.0717903E-04   6.154439       3.440036    
  9.0717903E-04  9.5369201E-04   6.088770       3.284525    
  9.5369201E-04  9.6163998E-04   5.134867       7.636569    
  9.6163998E-04  9.7783399E-04   5.147980       5.890657    
  9.7783399E-04  1.0025901E-03   5.229509       4.880062    
  1.0025901E-03  1.0539900E-03   4.900398       3.271269    
  1.0539900E-03  1.1080300E-03   4.740662       3.445452    
  1.1080300E-03  1.1648400E-03   4.219906       3.328811    
  1.1648400E-03  1.1943300E-03   4.170728       4.827015    
  1.1943300E-03  1.2245600E-03   4.065252       4.382084    
  1.2245600E-03  1.2873500E-03   4.036291       3.267721    
  1.2873500E-03  1.3533500E-03   4.222190       3.239037    
  1.3533500E-03  1.4227401E-03   4.210740       3.315727    
  1.4227401E-03  1.4956900E-03   4.325724       3.256498    
  1.4956900E-03  1.5335500E-03   3.980891       4.614961    
  1.5335500E-03  1.5723699E-03   3.877027       4.795684    
  1.5723699E-03  1.6121800E-03   4.199989       4.403047    
  1.6121800E-03  1.6529900E-03   4.052221       4.745241    
  1.6529900E-03  1.7377400E-03   4.187874       3.459825    
  1.7377400E-03  1.8268300E-03   4.285639       3.190139    
  1.8268300E-03  1.8730800E-03   3.892022       4.839786    
  1.8730800E-03  1.9205000E-03   4.122314       4.634366    
  1.9205000E-03  1.9691200E-03   4.219794       4.835024    
  1.9691200E-03  2.0189700E-03   3.831032       4.356229    
  2.0189700E-03  2.1224800E-03   3.779021       3.412133    
  2.1224800E-03  2.2313001E-03   3.423335       3.310204    
  2.2313001E-03  2.2688799E-03   3.620347       5.484503    
  2.2688799E-03  2.3068599E-03   3.263204       5.768732    
  2.3068599E-03  2.3457000E-03   3.792945       5.960224    
  2.3457000E-03  2.3652499E-03   3.773659       8.102989    
  2.3652499E-03  2.3852000E-03   4.144415       7.793107    
  2.3852000E-03  2.4251300E-03   3.644701       5.393320    
  2.4251300E-03  2.4659701E-03   3.416855       5.543328    
  2.4659701E-03  2.5923999E-03   3.303566       3.222714    
  2.5923999E-03  2.7253199E-03   3.206130       3.513687    
  2.7253199E-03  2.8650500E-03   3.035094       3.340215    
  2.8650500E-03  3.0119400E-03   2.907987       3.564405    
  3.0119400E-03  3.0881900E-03   2.729887       4.907662    
  3.0881900E-03  3.1663701E-03   2.699526       4.818805    
  3.1663701E-03  3.2465300E-03   2.602888       5.154210    
  3.2465300E-03  3.3287101E-03   2.601588       5.358605    
  3.3287101E-03  3.4993801E-03   2.476968       3.455798    
  3.4993801E-03  3.6787901E-03   2.450424       3.560168    
  3.6787901E-03  3.8674099E-03   2.265576       3.571793    
  3.8674099E-03  4.0656999E-03   2.235196       3.687255    
  4.0656999E-03  4.2741499E-03   2.236511       3.683506    
  4.2741499E-03  4.4932901E-03   2.062754       3.604952    
  4.4932901E-03  4.6070400E-03   2.075625       4.829751    
  4.6070400E-03  4.7236700E-03   1.951990       4.991324    
  4.7236700E-03  4.8432499E-03   2.070781       5.310688    
  4.8432499E-03  4.9658502E-03   2.158945       4.674336    
  4.9658502E-03  5.2204598E-03   1.860218       3.777693    
  5.2204598E-03  5.4881200E-03   1.675465       3.715973    
  5.4881200E-03  5.7695000E-03   1.615110       3.661856    
  5.7695000E-03  5.9155500E-03   1.561918       4.908635    
  5.9155500E-03  6.0653100E-03   1.495877       4.944923    
  6.0653100E-03  6.2188501E-03   1.650925       5.170839    
  6.2188501E-03  6.3762800E-03   1.528200       4.917653    
  6.3762800E-03  6.5377001E-03   1.514190       5.001649    
  6.5377001E-03  6.5923799E-03   1.543703       8.603404    
  6.5923799E-03  6.6475999E-03   1.489355       8.998444    
  6.6475999E-03  6.7031998E-03   1.443717       8.212369    
  6.7031998E-03  6.8728901E-03   1.397334       5.026585    
  6.8728901E-03  7.0468802E-03   1.385036       5.007920    
  7.0468802E-03  7.2252699E-03   1.217407       5.116611    
  7.2252699E-03  7.4081798E-03   1.255150       5.194008    
  7.4081798E-03  7.5957198E-03   1.194250       5.537100    
  7.5957198E-03  7.7880099E-03   1.236009       5.404720    
  7.7880099E-03  7.9851598E-03   1.158235       6.056076    
  7.9851598E-03  8.1873098E-03   1.130940       5.137800    
  8.1873098E-03  8.3945701E-03   1.211309       5.607056    
  8.3945701E-03  8.6070802E-03   1.167812       5.254294    
  8.6070802E-03  8.8249696E-03   1.228091       4.753326    
  8.8249696E-03  9.0483697E-03   1.053342       5.145037    
  9.0483697E-03  9.2774397E-03  0.9839635       5.410807    
  9.2774397E-03  9.5122904E-03  0.9870118       5.210686    
  9.5122904E-03  9.7530996E-03   1.023599       5.526818    
  9.7530996E-03  9.9999998E-03  0.9265653       5.661129    
  9.9999998E-03  1.0253200E-02  0.9561232       5.357099    
  1.0253200E-02  1.0512700E-02  0.9210062       5.466512    
  1.0512700E-02  1.0778800E-02  0.8616953       5.405414    
  1.0778800E-02  1.1051700E-02  0.8863823       5.752357    
  1.1051700E-02  1.1331500E-02  0.8984746       5.427535    
  1.1331500E-02  1.1618300E-02  0.8477048       5.239058    
  1.1618300E-02  1.1912500E-02  0.7522536       5.360465    
  1.1912500E-02  1.2214000E-02  0.8371774       5.108789    
  1.2214000E-02  1.2523200E-02  0.7718403       5.429987    
  1.2523200E-02  1.2840200E-02  0.7933608       5.317498    
  1.2840200E-02  1.3165300E-02  0.8113298       5.318466    
  1.3165300E-02  1.3498600E-02  0.7763564       5.434464    
  1.3498600E-02  1.3840300E-02  0.8160378       5.503359    
  1.3840300E-02  1.4190700E-02  0.8027761       5.558479    
  1.4190700E-02  1.4549900E-02  0.7046353       5.368090    
  1.4549900E-02  1.4918300E-02  0.7652401       5.063438    
  1.4918300E-02  1.5295900E-02  0.6976841       5.533039    
  1.5295900E-02  1.5683100E-02  0.6506668       5.469780    
  1.5683100E-02  1.6080100E-02  0.7209814       5.546985    
  1.6080100E-02  1.6487200E-02  0.6877551       5.437699    
  1.6487200E-02  1.6904600E-02  0.6601014       5.364938    
  1.6904600E-02  1.7332500E-02  0.6466770       5.826374    
  1.7332500E-02  1.7771300E-02  0.6107811       5.993980    
  1.7771300E-02  1.8221200E-02  0.5446923       5.808438    
  1.8221200E-02  1.8682500E-02  0.6694455       5.716115    
  1.8682500E-02  1.9155400E-02  0.5784777       5.911162    
  1.9155400E-02  1.9640300E-02  0.5573927       5.481224    
  1.9640300E-02  2.0000000E-02  0.5129160       6.480963    
