 # Detector n:            1   HeIInflux 
 # N. of energy intervals         260
  1.0000100E-14  2.0000000E-13  1.0761469E+10   2.338151    
  2.0000000E-13  2.9297300E-13  2.5092708E+10   2.035923    
  2.9297300E-13  4.2916701E-13  3.6078318E+10   1.458055    
  4.2916701E-13  6.2867300E-13  5.0190160E+10   1.086921    
  6.2867300E-13  9.2092198E-13  6.9849154E+10  0.7733070    
  9.2092198E-13  1.3490300E-12  9.2772721E+10  0.5472466    
  1.3490300E-12  1.9761499E-12  1.1934791E+11  0.4092611    
  1.9761499E-12  2.8947901E-12  1.4994384E+11  0.3119391    
  2.8947901E-12  4.2404799E-12  1.7636042E+11  0.2474022    
  4.2404799E-12  6.2117499E-12  1.9604138E+11  0.1982886    
  6.2117499E-12  9.0993801E-12  1.9823840E+11  0.1727755    
  9.0993801E-12  1.3329400E-11  1.7927584E+11  0.1594278    
  1.3329400E-11  1.9525799E-11  1.3936596E+11  0.1553058    
  1.9525799E-11  2.8602700E-11  9.0280739E+10  0.1484551    
  2.8602700E-11  4.1899099E-11  4.8737116E+10  0.1672691    
  4.1899099E-11  6.1376598E-11  2.3526666E+10  0.1866908    
  6.1376598E-11  8.9908601E-11  1.0207731E+10  0.2169437    
  8.9908601E-11  1.3170399E-10  3.6080868E+09  0.3130971    
  1.3170399E-10  1.9292901E-10  1.0901921E+09  0.4430222    
  1.9292901E-10  2.8261499E-10  3.8851043E+08  0.5775465    
  2.8261499E-10  4.1399401E-10  1.9985389E+08  0.6473839    
  4.1399401E-10  5.3157900E-10  1.3308040E+08  0.8330210    
  5.3157900E-10  6.2506200E-10  1.0524650E+08   1.116334    
  6.2506200E-10  6.8256001E-10  9.1165488E+07   1.460887    
  6.8256001E-10  8.3368101E-10  7.7376168E+07  0.9526644    
  8.3368101E-10  8.7642499E-10  6.7550392E+07   1.924499    
  8.7642499E-10  1.1253500E-09  5.5337600E+07  0.8964459    
  1.1253500E-09  1.4449800E-09  4.2549748E+07  0.8942152    
  1.4449800E-09  1.8553900E-09  3.1912626E+07  0.9391690    
  1.8553900E-09  2.3823701E-09  2.4008350E+07  0.9444945    
  2.3823701E-09  3.0590199E-09  1.8028218E+07  0.9325628    
  3.0590199E-09  3.9278598E-09  1.4044540E+07  0.9517409    
  3.9278598E-09  5.0434799E-09  1.0834800E+07  0.9467195    
  5.0434799E-09  6.4759500E-09   8057558.      0.9357021    
  6.4759500E-09  8.3152898E-09   6140362.      0.9950665    
  8.3152898E-09  1.0677000E-08   4667034.      0.9761358    
  1.0677000E-08  1.3709600E-08   3542645.      0.9752689    
  1.3709600E-08  1.7603501E-08   2681974.       1.010613    
  1.7603501E-08  2.2603301E-08   2108408.       1.034761    
  2.2603301E-08  2.9023200E-08   1583622.       1.074467    
  2.9023200E-08  3.7266499E-08   1200051.      0.9724758    
  3.7266499E-08  4.7851199E-08   915497.2       1.055555    
  4.7851199E-08  6.1442101E-08   693612.2       1.422967    
  6.1442101E-08  7.8893301E-08   520271.4       1.033640    
  7.8893301E-08  1.0130100E-07   394690.4       1.057370    
  1.0130100E-07  1.3007300E-07   295356.9       1.202806    
  1.3007300E-07  1.6701701E-07   221990.8       1.153963    
  1.6701701E-07  2.1445400E-07   171599.4       1.125080    
  2.1445400E-07  2.7536399E-07   126340.0       1.099471    
  2.7536399E-07  3.5357499E-07   95714.29       1.157142    
  3.5357499E-07  4.5399901E-07   70882.98       1.197747    
  4.5399901E-07  5.8294700E-07   55172.41       1.218099    
  5.8294700E-07  7.4851800E-07   41074.91       1.535321    
  7.4851800E-07  9.6111603E-07   30552.56       1.216695    
  9.6111603E-07  1.2341000E-06   23804.07       1.293953    
  1.2341000E-06  1.3638900E-06   20185.95       2.230580    
  1.3638900E-06  1.5073300E-06   17354.63       2.918325    
  1.5073300E-06  1.5846100E-06   16129.27       2.621174    
  1.5846100E-06  1.6658601E-06   15246.21       3.059174    
  1.6658601E-06  1.8410600E-06   14423.06       1.910860    
  1.8410600E-06  2.0346799E-06   12802.26       1.939391    
  2.0346799E-06  2.2486699E-06   10005.81       2.062447    
  2.2486699E-06  2.4851699E-06   9239.011       2.039003    
  2.4851699E-06  2.6125899E-06   9172.728       5.430488    
  2.6125899E-06  2.7465401E-06   7771.628       2.981277    
  2.7465401E-06  2.8634900E-06   8189.248       2.984698    
  2.8634900E-06  3.0353899E-06   7550.812       2.819839    
  3.0353899E-06  3.3546301E-06   6972.257       2.759928    
  3.3546301E-06  3.7074401E-06   6031.504       2.020078    
  3.7074401E-06  4.0973500E-06   5514.474       2.078445    
  4.0973500E-06  4.3074201E-06   4856.376       2.915433    
  4.3074201E-06  4.5282700E-06   4551.040       2.833827    
  4.5282700E-06  5.0045101E-06   4536.548       2.231102    
  5.0045101E-06  5.5308401E-06   4327.376       2.557263    
  5.5308401E-06  6.2672698E-06   2745.931       2.703928    
  6.2672698E-06  7.1017398E-06   2999.615       1.860644    
  7.1017398E-06  8.0473301E-06   2477.931       1.961227    
  8.0473301E-06  9.1188203E-06   2110.680       2.086546    
  9.1188203E-06  1.0333000E-05   1904.454       2.061978    
  1.0333000E-05  1.1708800E-05   1700.359       1.925714    
  1.1708800E-05  1.3267800E-05   1511.418       2.160349    
  1.3267800E-05  1.5034400E-05   1250.919       2.163401    
  1.5034400E-05  1.7036200E-05   1100.474       2.023586    
  1.7036200E-05  1.9304500E-05   1009.788       2.089200    
  1.9304500E-05  2.1334799E-05   855.2708       2.228138    
  2.1334799E-05  2.1874899E-05   782.9580       4.334309    
  2.1874899E-05  2.3578599E-05   792.3021       2.347219    
  2.3578599E-05  2.4175501E-05   824.1522       5.001186    
  2.4175501E-05  2.4787500E-05   925.9839       7.575542    
  2.4787500E-05  2.6058400E-05   796.1341       2.769684    
  2.6058400E-05  2.8087899E-05   647.8826       2.647507    
  2.8087899E-05  3.1827800E-05   674.8408       1.799365    
  3.1827800E-05  3.4306700E-05   408.7481       2.826410    
  3.4306700E-05  3.5175199E-05   194.6917       6.490214    
  3.5175199E-05  3.6065601E-05   165.6931       6.653835    
  3.6065601E-05  4.0867701E-05   259.3354       2.556552    
  4.0867701E-05  4.6309200E-05   298.1426       2.311569    
  4.6309200E-05  5.2475199E-05   290.2093       2.063251    
  5.2475199E-05  5.6562199E-05   261.7975       3.498803    
  5.6562199E-05  5.9462200E-05   250.5632       3.168629    
  5.9462200E-05  6.2510902E-05   230.4662       3.048121    
  6.2510902E-05  6.7379500E-05   242.1206       2.796146    
  6.7379500E-05  7.6350902E-05   263.4589       2.087500    
  7.6350902E-05  8.6516899E-05   172.7632       2.467966    
  8.6516899E-05  9.8036500E-05   96.36860       3.017641    
  9.8036500E-05  1.1109000E-04   126.1143       2.702351    
  1.1109000E-04  1.1678600E-04   126.7420       3.001771    
  1.1678600E-04  1.2277300E-04   93.05047       3.438467    
  1.2277300E-04  1.2906799E-04   140.2668       2.734178    
  1.2906799E-04  1.3568600E-04   132.9365       2.689188    
  1.3568600E-04  1.4264201E-04   96.69799       3.085879    
  1.4264201E-04  1.4995600E-04   72.77116       3.422845    
  1.4995600E-04  1.5764400E-04   70.29037       3.539535    
  1.5764400E-04  1.6163501E-04   54.33247       5.561881    
  1.6163501E-04  1.6572700E-04   72.26752       6.416144    
  1.6572700E-04  1.6992200E-04   73.66521       4.357176    
  1.6992200E-04  1.7422400E-04   67.57392       4.791856    
  1.7422400E-04  1.8315599E-04   79.15767       3.221024    
  1.8315599E-04  1.9254700E-04   74.14015       3.208320    
  1.9254700E-04  2.0241900E-04   68.29125       3.102695    
  2.0241900E-04  2.1279699E-04   52.82652       3.334928    
  2.1279699E-04  2.2370800E-04   55.74028       3.328275    
  2.2370800E-04  2.3517800E-04   56.21860       3.469267    
  2.3517800E-04  2.4723500E-04   56.86148       2.890200    
  2.4723500E-04  2.5991100E-04   56.53326       3.013670    
  2.5991100E-04  2.7323700E-04   61.92068       3.315351    
  2.7323700E-04  2.8015400E-04   48.78475       4.075779    
  2.8015400E-04  2.8724599E-04   39.51745       4.054418    
  2.8724599E-04  2.9451799E-04   44.45192       4.374241    
  2.9451799E-04  3.0197401E-04   50.35492       3.833276    
  3.0197401E-04  3.0961799E-04   48.71370       3.954846    
  3.0961799E-04  3.1745600E-04   43.99518       4.079292    
  3.1745600E-04  3.3373301E-04   39.99345       3.153989    
  3.3373301E-04  3.5084400E-04   44.02454       3.238413    
  3.5084400E-04  3.6883200E-04   38.22449       2.935262    
  3.6883200E-04  3.8774201E-04   34.19726       3.118814    
  3.8774201E-04  4.0762199E-04   33.55340       3.179870    
  4.0762199E-04  4.2852099E-04   26.74411       3.292694    
  4.2852099E-04  4.5049199E-04   26.66125       3.023792    
  4.5049199E-04  4.7358900E-04   26.30877       3.030552    
  4.7358900E-04  4.9787102E-04   24.79458       3.201621    
  4.9787102E-04  5.1047403E-04   22.74546       4.289321    
  5.1047403E-04  5.2339700E-04   21.69200       4.517357    
  5.2339700E-04  5.3664698E-04   18.94829       4.317605    
  5.3664698E-04  5.5023201E-04   19.06255       4.667766    
  5.5023201E-04  5.7844300E-04   19.34247       3.001728    
  5.7844300E-04  6.0810102E-04   17.69921       2.934776    
  6.0810102E-04  6.3927902E-04   16.47350       2.910857    
  6.3927902E-04  6.7205500E-04   13.71140       3.231655    
  6.7205500E-04  7.0651202E-04   12.49661       3.203183    
  7.0651202E-04  7.4273598E-04   11.81934       3.296271    
  7.4273598E-04  7.8081700E-04   10.19657       3.135953    
  7.8081700E-04  8.2085002E-04   8.336225       3.463734    
  8.2085002E-04  8.6293602E-04   8.095915       3.017550    
  8.6293602E-04  9.0717903E-04   6.994043       3.374459    
  9.0717903E-04  9.5369201E-04   6.673157       3.174777    
  9.5369201E-04  9.6163998E-04   6.264328       7.257149    
  9.6163998E-04  9.7783399E-04   5.192080       5.086019    
  9.7783399E-04  1.0025901E-03   5.520860       4.381746    
  1.0025901E-03  1.0539900E-03   5.122018       3.189150    
  1.0539900E-03  1.1080300E-03   5.088167       3.036330    
  1.1080300E-03  1.1648400E-03   4.761588       3.248578    
  1.1648400E-03  1.1943300E-03   4.565832       4.369781    
  1.1943300E-03  1.2245600E-03   4.829799       4.164349    
  1.2245600E-03  1.2873500E-03   4.422726       3.154484    
  1.2873500E-03  1.3533500E-03   4.591857       3.244645    
  1.3533500E-03  1.4227401E-03   4.524164       3.232198    
  1.4227401E-03  1.4956900E-03   4.757244       3.168122    
  1.4956900E-03  1.5335500E-03   4.298015       4.107811    
  1.5335500E-03  1.5723699E-03   4.407032       4.683517    
  1.5723699E-03  1.6121800E-03   4.073732       4.213727    
  1.6121800E-03  1.6529900E-03   4.529601       4.675609    
  1.6529900E-03  1.7377400E-03   4.252539       3.278499    
  1.7377400E-03  1.8268300E-03   4.579562       3.216464    
  1.8268300E-03  1.8730800E-03   4.477088       4.416405    
  1.8730800E-03  1.9205000E-03   4.339503       4.543555    
  1.9205000E-03  1.9691200E-03   4.290976       4.749394    
  1.9691200E-03  2.0189700E-03   4.431012       4.159823    
  2.0189700E-03  2.1224800E-03   3.869961       3.449148    
  2.1224800E-03  2.2313001E-03   3.851806       3.269705    
  2.2313001E-03  2.2688799E-03   3.887644       5.632195    
  2.2688799E-03  2.3068599E-03   3.537212       5.443893    
  2.3068599E-03  2.3457000E-03   3.983874       5.311986    
  2.3457000E-03  2.3652499E-03   3.913503       7.141654    
  2.3652499E-03  2.3852000E-03   3.919398       7.407151    
  2.3852000E-03  2.4251300E-03   3.728517       5.523793    
  2.4251300E-03  2.4659701E-03   4.464881       5.351110    
  2.4659701E-03  2.5923999E-03   3.569809       3.359479    
  2.5923999E-03  2.7253199E-03   3.365104       3.365817    
  2.7253199E-03  2.8650500E-03   3.169907       3.254835    
  2.8650500E-03  3.0119400E-03   2.773506       3.416807    
  3.0119400E-03  3.0881900E-03   2.880366       4.907190    
  3.0881900E-03  3.1663701E-03   2.767777       4.662307    
  3.1663701E-03  3.2465300E-03   2.639583       4.715891    
  3.2465300E-03  3.3287101E-03   2.426228       4.758043    
  3.3287101E-03  3.4993801E-03   2.605745       3.557408    
  3.4993801E-03  3.6787901E-03   2.619490       3.371010    
  3.6787901E-03  3.8674099E-03   2.378089       3.296527    
  3.8674099E-03  4.0656999E-03   2.595640       3.478259    
  4.0656999E-03  4.2741499E-03   2.371078       3.560260    
  4.2741499E-03  4.4932901E-03   2.010002       3.623350    
  4.4932901E-03  4.6070400E-03   2.441392       5.029458    
  4.6070400E-03  4.7236700E-03   2.064636       4.834895    
  4.7236700E-03  4.8432499E-03   2.050082       5.256812    
  4.8432499E-03  4.9658502E-03   2.019976       4.915656    
  4.9658502E-03  5.2204598E-03   1.964590       3.601558    
  5.2204598E-03  5.4881200E-03   1.845436       3.826979    
  5.4881200E-03  5.7695000E-03   1.813159       3.495739    
  5.7695000E-03  5.9155500E-03   1.659687       4.950840    
  5.9155500E-03  6.0653100E-03   1.545239       5.141530    
  6.0653100E-03  6.2188501E-03   1.643748       5.165555    
  6.2188501E-03  6.3762800E-03   1.454312       5.271000    
  6.3762800E-03  6.5377001E-03   1.547323       4.907281    
  6.5377001E-03  6.5923799E-03   1.537798       8.473566    
  6.5923799E-03  6.6475999E-03   1.336884       9.102776    
  6.6475999E-03  6.7031998E-03   1.455928       7.873458    
  6.7031998E-03  6.8728901E-03   1.520907       4.896820    
  6.8728901E-03  7.0468802E-03   1.287329       5.067178    
  7.0468802E-03  7.2252699E-03   1.350992       5.157773    
  7.2252699E-03  7.4081798E-03   1.238667       5.305844    
  7.4081798E-03  7.5957198E-03   1.214790       5.194118    
  7.5957198E-03  7.7880099E-03   1.150985       5.383736    
  7.7880099E-03  7.9851598E-03   1.196004       5.576234    
  7.9851598E-03  8.1873098E-03   1.177697       5.435000    
  8.1873098E-03  8.3945701E-03   1.068750       5.101622    
  8.3945701E-03  8.6070802E-03   1.169599       5.156785    
  8.6070802E-03  8.8249696E-03   1.003648       5.665972    
  8.8249696E-03  9.0483697E-03   1.066871       5.408337    
  9.0483697E-03  9.2774397E-03   1.034670       5.495505    
  9.2774397E-03  9.5122904E-03  0.9592971       5.288870    
  9.5122904E-03  9.7530996E-03   1.044705       5.395991    
  9.7530996E-03  9.9999998E-03   1.045423       5.299098    
  9.9999998E-03  1.0253200E-02  0.9448668       5.600395    
  1.0253200E-02  1.0512700E-02  0.9351426       5.270765    
  1.0512700E-02  1.0778800E-02  0.9127671       5.167637    
  1.0778800E-02  1.1051700E-02  0.9154376       5.092902    
  1.1051700E-02  1.1331500E-02  0.8654521       5.983996    
  1.1331500E-02  1.1618300E-02  0.9087966       5.111127    
  1.1618300E-02  1.1912500E-02  0.8595985       5.899379    
  1.1912500E-02  1.2214000E-02  0.9260874       5.795818    
  1.2214000E-02  1.2523200E-02  0.7804055       5.043165    
  1.2523200E-02  1.2840200E-02  0.7775175       5.173790    
  1.2840200E-02  1.3165300E-02  0.7804455       6.273211    
  1.3165300E-02  1.3498600E-02  0.7940080       5.650021    
  1.3498600E-02  1.3840300E-02  0.8013704       5.134953    
  1.3840300E-02  1.4190700E-02  0.8039067       5.093355    
  1.4190700E-02  1.4549900E-02  0.7780164       5.345001    
  1.4549900E-02  1.4918300E-02  0.6923736       5.237007    
  1.4918300E-02  1.5295900E-02  0.7546744       5.624725    
  1.5295900E-02  1.5683100E-02  0.7473498       5.292953    
  1.5683100E-02  1.6080100E-02  0.7015082       5.477100    
  1.6080100E-02  1.6487200E-02  0.6825588       5.690972    
  1.6487200E-02  1.6904600E-02  0.6896812       5.466389    
  1.6904600E-02  1.7332500E-02  0.6298726       5.266190    
  1.7332500E-02  1.7771300E-02  0.6248583       5.389303    
  1.7771300E-02  1.8221200E-02  0.5918069       5.424644    
  1.8221200E-02  1.8682500E-02  0.6074339       5.527091    
  1.8682500E-02  1.9155400E-02  0.5705403       5.456921    
  1.9155400E-02  1.9640300E-02  0.5585119       5.756835    
  1.9640300E-02  2.0000000E-02  0.6176861       6.526444    
