 # Detector n:            1   HeIInflux 
 # N. of energy intervals         260
  1.0000100E-14  2.0000000E-13  2.2362300E+10   3.247040    
  2.0000000E-13  2.9297300E-13  1.0173998E+11   5.766650    
  2.9297300E-13  4.2916701E-13  1.1419833E+11   7.529834    
  4.2916701E-13  6.2867300E-13  1.3031716E+11   2.776521    
  6.2867300E-13  9.2092198E-13  1.9603066E+11   2.871248    
  9.2092198E-13  1.3490300E-12  2.6096265E+11   4.635596    
  1.3490300E-12  1.9761499E-12  3.5739612E+11   2.045895    
  1.9761499E-12  2.8947901E-12  4.5060466E+11   2.184310    
  2.8947901E-12  4.2404799E-12  5.5953785E+11   2.791928    
  4.2404799E-12  6.2117499E-12  6.3111168E+11   2.012933    
  6.2117499E-12  9.0993801E-12  6.7659996E+11   1.676427    
  9.0993801E-12  1.3329400E-11  6.1220743E+11   1.106471    
  1.3329400E-11  1.9525799E-11  4.6477653E+11  0.8774431    
  1.9525799E-11  2.8602700E-11  2.8809979E+11   1.272354    
  2.8602700E-11  4.1899099E-11  1.3977148E+11   1.195939    
  4.1899099E-11  6.1376598E-11  5.7843483E+10  0.6038103    
  6.1376598E-11  8.9908601E-11  2.2404039E+10   2.226952    
  8.9908601E-11  1.3170399E-10  7.9498092E+09   1.307695    
  1.3170399E-10  1.9292901E-10  2.9898680E+09   1.104574    
  1.9292901E-10  2.8261499E-10  1.4704495E+09   1.943074    
  2.8261499E-10  4.1399401E-10  8.4498989E+08   1.332005    
  4.1399401E-10  5.3157900E-10  6.1984998E+08   2.363163    
  5.3157900E-10  6.2506200E-10  4.7053280E+08   3.375458    
  6.2506200E-10  6.8256001E-10  4.0743434E+08   2.239527    
  6.8256001E-10  8.3368101E-10  3.3992621E+08   1.338924    
  8.3368101E-10  8.7642499E-10  3.0751302E+08   2.672451    
  8.7642499E-10  1.1253500E-09  2.6631766E+08   1.539486    
  1.1253500E-09  1.4449800E-09  1.9909197E+08   1.247391    
  1.4449800E-09  1.8553900E-09  1.4675610E+08  0.5645847    
  1.8553900E-09  2.3823701E-09  1.1741466E+08   1.670518    
  2.3823701E-09  3.0590199E-09  8.7774472E+07   1.934999    
  3.0590199E-09  3.9278598E-09  6.6810452E+07   1.486401    
  3.9278598E-09  5.0434799E-09  5.1314592E+07   2.511975    
  5.0434799E-09  6.4759500E-09  3.9169136E+07   1.618919    
  6.4759500E-09  8.3152898E-09  3.0462992E+07   1.519015    
  8.3152898E-09  1.0677000E-08  2.3312450E+07   2.769830    
  1.0677000E-08  1.3709600E-08  1.7862380E+07   2.742206    
  1.3709600E-08  1.7603501E-08  1.3480191E+07   1.780409    
  1.7603501E-08  2.2603301E-08  1.0334870E+07   1.623301    
  2.2603301E-08  2.9023200E-08   7834026.       1.993284    
  2.9023200E-08  3.7266499E-08   6024656.      0.6670838    
  3.7266499E-08  4.7851199E-08   4471810.       1.717926    
  4.7851199E-08  6.1442101E-08   3625974.       2.338414    
  6.1442101E-08  7.8893301E-08   2623775.       2.420042    
  7.8893301E-08  1.0130100E-07   2009706.       3.238861    
  1.0130100E-07  1.3007300E-07   1470742.       1.677217    
  1.3007300E-07  1.6701701E-07   1142487.       1.475843    
  1.6701701E-07  2.1445400E-07   857787.5       2.282934    
  2.1445400E-07  2.7536399E-07   643865.1       1.160280    
  2.7536399E-07  3.5357499E-07   493730.2       1.294396    
  3.5357499E-07  4.5399901E-07   368281.1       2.879169    
  4.5399901E-07  5.8294700E-07   270842.7       1.607552    
  5.8294700E-07  7.4851800E-07   202594.5       1.380970    
  7.4851800E-07  9.6111603E-07   158175.5      0.8496102    
  9.6111603E-07  1.2341000E-06   114264.2       1.218866    
  1.2341000E-06  1.3638900E-06   92281.35       1.273470    
  1.3638900E-06  1.5073300E-06   81858.17       3.602558    
  1.5073300E-06  1.5846100E-06   80834.34       4.807980    
  1.5846100E-06  1.6658601E-06   73764.74       2.110797    
  1.6658601E-06  1.8410600E-06   68293.91       2.385368    
  1.8410600E-06  2.0346799E-06   59652.55       2.805068    
  2.0346799E-06  2.2486699E-06   48209.29       2.775426    
  2.2486699E-06  2.4851699E-06   46841.00       3.652792    
  2.4851699E-06  2.6125899E-06   38159.23       1.823826    
  2.6125899E-06  2.7465401E-06   39800.66       5.761966    
  2.7465401E-06  2.8634900E-06   33995.13       9.246605    
  2.8634900E-06  3.0353899E-06   34435.55       4.864861    
  3.0353899E-06  3.3546301E-06   31390.17       2.248517    
  3.3546301E-06  3.7074401E-06   27851.22       3.932787    
  3.7074401E-06  4.0973500E-06   24179.88       3.943061    
  4.0973500E-06  4.3074201E-06   23517.77       10.04534    
  4.3074201E-06  4.5282700E-06   21628.67       1.918391    
  4.5282700E-06  5.0045101E-06   18254.85       1.901556    
  5.0045101E-06  5.5308401E-06   19402.17       2.113719    
  5.5308401E-06  6.2672698E-06   11824.46       3.441801    
  6.2672698E-06  7.1017398E-06   12991.29       5.932304    
  7.1017398E-06  8.0473301E-06   10531.80       4.819343    
  8.0473301E-06  9.1188203E-06   9343.233       1.646585    
  9.1188203E-06  1.0333000E-05   8474.326       3.722853    
  1.0333000E-05  1.1708800E-05   7005.458       3.705060    
  1.1708800E-05  1.3267800E-05   5680.291       4.349598    
  1.3267800E-05  1.5034400E-05   4978.248       4.274087    
  1.5034400E-05  1.7036200E-05   4021.265       4.518619    
  1.7036200E-05  1.9304500E-05   3368.039       3.762914    
  1.9304500E-05  2.1334799E-05   2992.397       5.251066    
  2.1334799E-05  2.1874899E-05   2780.988       6.346456    
  2.1874899E-05  2.3578599E-05   2221.881       6.613153    
  2.3578599E-05  2.4175501E-05   2461.155       17.12579    
  2.4175501E-05  2.4787500E-05   2262.100       5.830344    
  2.4787500E-05  2.6058400E-05   2333.521       6.944796    
  2.6058400E-05  2.8087899E-05   2153.569       6.912506    
  2.8087899E-05  3.1827800E-05   2464.972       1.703515    
  3.1827800E-05  3.4306700E-05   1560.383       9.127856    
  3.4306700E-05  3.5175199E-05   857.8809       10.99287    
  3.5175199E-05  3.6065601E-05   616.4955       25.84167    
  3.6065601E-05  4.0867701E-05   902.9091       2.580022    
  4.0867701E-05  4.6309200E-05   979.8575       5.237103    
  4.6309200E-05  5.2475199E-05   932.0608       3.647517    
  5.2475199E-05  5.6562199E-05   773.8278       4.222255    
  5.6562199E-05  5.9462200E-05   650.8579       1.983071    
  5.9462200E-05  6.2510902E-05   675.7156       8.541581    
  6.2510902E-05  6.7379500E-05   536.2786       8.250203    
  6.7379500E-05  7.6350902E-05   560.9080       8.777570    
  7.6350902E-05  8.6516899E-05   394.8857       3.003392    
  8.6516899E-05  9.8036500E-05   215.8997       5.215662    
  9.8036500E-05  1.1109000E-04   291.8504       5.467397    
  1.1109000E-04  1.1678600E-04   302.7796       2.619810    
  1.1678600E-04  1.2277300E-04   218.5957       17.49457    
  1.2277300E-04  1.2906799E-04   287.4115       11.78169    
  1.2906799E-04  1.3568600E-04   265.0327       7.097301    
  1.3568600E-04  1.4264201E-04   233.5781       10.41968    
  1.4264201E-04  1.4995600E-04   147.5314       19.75086    
  1.4995600E-04  1.5764400E-04   140.0985       6.400826    
  1.5764400E-04  1.6163501E-04   144.4012       12.79466    
  1.6163501E-04  1.6572700E-04   138.9071       18.43230    
  1.6572700E-04  1.6992200E-04   162.3389       16.26905    
  1.6992200E-04  1.7422400E-04   153.7214       33.18292    
  1.7422400E-04  1.8315599E-04   163.8872       5.922145    
  1.8315599E-04  1.9254700E-04   156.3188       6.469560    
  1.9254700E-04  2.0241900E-04   127.6159       8.308667    
  2.0241900E-04  2.1279699E-04   111.0171       9.807399    
  2.1279699E-04  2.2370800E-04   106.8957       9.108053    
  2.2370800E-04  2.3517800E-04   95.72090       8.836801    
  2.3517800E-04  2.4723500E-04   86.06120       8.644141    
  2.4723500E-04  2.5991100E-04   97.86041       5.933488    
  2.5991100E-04  2.7323700E-04   99.98119       11.16968    
  2.7323700E-04  2.8015400E-04   77.87103       23.27341    
  2.8015400E-04  2.8724599E-04   54.20260       11.13904    
  2.8724599E-04  2.9451799E-04   61.93692       10.04999    
  2.9451799E-04  3.0197401E-04   67.54593       14.43808    
  3.0197401E-04  3.0961799E-04   87.69141       11.49211    
  3.0961799E-04  3.1745600E-04   83.98861       8.850040    
  3.1745600E-04  3.3373301E-04   52.68859       9.767053    
  3.3373301E-04  3.5084400E-04   68.94004       14.07981    
  3.5084400E-04  3.6883200E-04   70.63235       8.018640    
  3.6883200E-04  3.8774201E-04   52.68233       9.481871    
  3.8774201E-04  4.0762199E-04   52.35507       18.72986    
  4.0762199E-04  4.2852099E-04   48.06872       6.365242    
  4.2852099E-04  4.5049199E-04   32.79845       9.205857    
  4.5049199E-04  4.7358900E-04   40.67221       6.633212    
  4.7358900E-04  4.9787102E-04   35.30964       8.742962    
  4.9787102E-04  5.1047403E-04   51.83649       17.72303    
  5.1047403E-04  5.2339700E-04   43.95222       2.389647    
  5.2339700E-04  5.3664698E-04   22.15682       18.39530    
  5.3664698E-04  5.5023201E-04   42.71329       5.596663    
  5.5023201E-04  5.7844300E-04   39.09026       14.89763    
  5.7844300E-04  6.0810102E-04   36.07889       15.53070    
  6.0810102E-04  6.3927902E-04   29.73469       10.78303    
  6.3927902E-04  6.7205500E-04   25.52115       13.37803    
  6.7205500E-04  7.0651202E-04   25.99495       9.013622    
  7.0651202E-04  7.4273598E-04   22.81038       5.513197    
  7.4273598E-04  7.8081700E-04   20.29961       3.458662    
  7.8081700E-04  8.2085002E-04   9.893790       7.655970    
  8.2085002E-04  8.6293602E-04   12.45787       6.063270    
  8.6293602E-04  9.0717903E-04   10.42996       19.14951    
  9.0717903E-04  9.5369201E-04   11.00726       13.55277    
  9.5369201E-04  9.6163998E-04   10.40712       25.12851    
  9.6163998E-04  9.7783399E-04   10.08964       17.80846    
  9.7783399E-04  1.0025901E-03   12.75926       27.48304    
  1.0025901E-03  1.0539900E-03   9.888439       7.311248    
  1.0539900E-03  1.1080300E-03   10.33364       12.84647    
  1.1080300E-03  1.1648400E-03   10.17734       9.286664    
  1.1648400E-03  1.1943300E-03   9.748857       16.76233    
  1.1943300E-03  1.2245600E-03   9.366739       8.924075    
  1.2245600E-03  1.2873500E-03   7.575358       12.47106    
  1.2873500E-03  1.3533500E-03   7.260819       13.11188    
  1.3533500E-03  1.4227401E-03   9.753525       14.13393    
  1.4227401E-03  1.4956900E-03   9.370774       14.29830    
  1.4956900E-03  1.5335500E-03   6.735585       15.81759    
  1.5335500E-03  1.5723699E-03   6.101355       24.92175    
  1.5723699E-03  1.6121800E-03   7.316258       22.13505    
  1.6121800E-03  1.6529900E-03   8.496839       9.763741    
  1.6529900E-03  1.7377400E-03   9.332794       16.36961    
  1.7377400E-03  1.8268300E-03   7.093359       25.20028    
  1.8268300E-03  1.8730800E-03   8.777340       17.61069    
  1.8730800E-03  1.9205000E-03   7.157523       20.49923    
  1.9205000E-03  1.9691200E-03   12.04836       17.40001    
  1.9691200E-03  2.0189700E-03   9.063651       14.97367    
  2.0189700E-03  2.1224800E-03   4.959487       11.35775    
  2.1224800E-03  2.2313001E-03   6.594314       8.627757    
  2.2313001E-03  2.2688799E-03   4.249846       32.28963    
  2.2688799E-03  2.3068599E-03   6.801549       31.55752    
  2.3068599E-03  2.3457000E-03   3.397869       24.08953    
  2.3457000E-03  2.3652499E-03   3.809933       25.90873    
  2.3652499E-03  2.3852000E-03   5.254761       30.12426    
  2.3852000E-03  2.4251300E-03   4.116347       20.70605    
  2.4251300E-03  2.4659701E-03   7.768146       12.51711    
  2.4659701E-03  2.5923999E-03   4.921016       15.37212    
  2.5923999E-03  2.7253199E-03   6.007298       10.90723    
  2.7253199E-03  2.8650500E-03   4.499833       17.66075    
  2.8650500E-03  3.0119400E-03   3.736952       10.13996    
  3.0119400E-03  3.0881900E-03   3.836401       17.07507    
  3.0881900E-03  3.1663701E-03   3.497687       37.99016    
  3.1663701E-03  3.2465300E-03   3.911714       13.58809    
  3.2465300E-03  3.3287101E-03   3.219107       12.28800    
  3.3287101E-03  3.4993801E-03   3.392525       20.58047    
  3.4993801E-03  3.6787901E-03   3.773390       8.724095    
  3.6787901E-03  3.8674099E-03   2.785748       17.30238    
  3.8674099E-03  4.0656999E-03   2.905761      0.3354715    
  4.0656999E-03  4.2741499E-03   2.500222       14.17053    
  4.2741499E-03  4.4932901E-03   3.213632       12.04315    
  4.4932901E-03  4.6070400E-03   2.284882       17.82403    
  4.6070400E-03  4.7236700E-03   2.233943       25.13107    
  4.7236700E-03  4.8432499E-03   2.840602       9.742137    
  4.8432499E-03  4.9658502E-03   2.134186       20.81862    
  4.9658502E-03  5.2204598E-03   2.689106       14.01686    
  5.2204598E-03  5.4881200E-03   2.330883       15.30988    
  5.4881200E-03  5.7695000E-03   2.115146       8.264527    
  5.7695000E-03  5.9155500E-03   2.729467       27.43513    
  5.9155500E-03  6.0653100E-03   2.089329       14.68411    
  6.0653100E-03  6.2188501E-03   2.290905       22.84385    
  6.2188501E-03  6.3762800E-03   1.125407       19.80027    
  6.3762800E-03  6.5377001E-03   2.099487       11.29111    
  6.5377001E-03  6.5923799E-03   1.509121       38.68059    
  6.5923799E-03  6.6475999E-03   3.006229       24.89717    
  6.6475999E-03  6.7031998E-03   2.294510       26.14000    
  6.7031998E-03  6.8728901E-03   1.340867       21.33804    
  6.8728901E-03  7.0468802E-03   2.001114       14.04449    
  7.0468802E-03  7.2252699E-03   1.752475       16.98677    
  7.2252699E-03  7.4081798E-03   1.378871       10.50164    
  7.4081798E-03  7.5957198E-03   2.595093       28.61601    
  7.5957198E-03  7.7880099E-03   1.807398       19.58358    
  7.7880099E-03  7.9851598E-03  0.9807003       22.19110    
  7.9851598E-03  8.1873098E-03   2.046426       18.40989    
  8.1873098E-03  8.3945701E-03   1.433821       13.31844    
  8.3945701E-03  8.6070802E-03   1.088914       31.77063    
  8.6070802E-03  8.8249696E-03   1.129408       12.67647    
  8.8249696E-03  9.0483697E-03   1.460992       6.601738    
  9.0483697E-03  9.2774397E-03   1.198931       27.01712    
  9.2774397E-03  9.5122904E-03   1.087109       23.92254    
  9.5122904E-03  9.7530996E-03   1.251847       12.75307    
  9.7530996E-03  9.9999998E-03   1.213427       18.72036    
  9.9999998E-03  1.0253200E-02   1.057530       27.22590    
  1.0253200E-02  1.0512700E-02  0.8317241       9.776922    
  1.0512700E-02  1.0778800E-02  0.9547468       13.63433    
  1.0778800E-02  1.1051700E-02   1.200085       34.75299    
  1.1051700E-02  1.1331500E-02  0.7766528       25.64033    
  1.1331500E-02  1.1618300E-02  0.9908069       7.983894    
  1.1618300E-02  1.1912500E-02   1.081895       15.04551    
  1.1912500E-02  1.2214000E-02  0.9796972       17.90835    
  1.2214000E-02  1.2523200E-02  0.7022862       12.32693    
  1.2523200E-02  1.2840200E-02  0.6916137       25.19035    
  1.2840200E-02  1.3165300E-02  0.7375168       20.33895    
  1.3165300E-02  1.3498600E-02   1.096001       14.83533    
  1.3498600E-02  1.3840300E-02  0.5963807       19.12970    
  1.3840300E-02  1.4190700E-02  0.6913552       8.713766    
  1.4190700E-02  1.4549900E-02  0.8290722       5.897758    
  1.4549900E-02  1.4918300E-02  0.5010976       15.61460    
  1.4918300E-02  1.5295900E-02  0.7895934       23.54158    
  1.5295900E-02  1.5683100E-02  0.8802683       4.596380    
  1.5683100E-02  1.6080100E-02  0.8176636       23.25562    
  1.6080100E-02  1.6487200E-02  0.6383342       8.087794    
  1.6487200E-02  1.6904600E-02  0.9483026       21.88186    
  1.6904600E-02  1.7332500E-02  0.7295918       26.37879    
  1.7332500E-02  1.7771300E-02  0.4391996       37.01372    
  1.7771300E-02  1.8221200E-02  0.5367941       22.98796    
  1.8221200E-02  1.8682500E-02  0.4290027       29.43637    
  1.8682500E-02  1.9155400E-02  0.3753670       24.56808    
  1.9155400E-02  1.9640300E-02  0.7319428       25.45997    
  1.9640300E-02  2.0000000E-02  0.3350556       37.27607    
