 # Detector n:            1   HeIInflux 
 # N. of energy intervals         260
  1.0000100E-14  2.0000000E-13  9.8544896E+09   1.759105    
  2.0000000E-13  2.9297300E-13  2.1050155E+10   1.574232    
  2.9297300E-13  4.2916701E-13  3.0971845E+10   1.202326    
  4.2916701E-13  6.2867300E-13  4.2887209E+10  0.7859255    
  6.2867300E-13  9.2092198E-13  5.9408982E+10  0.5560489    
  9.2092198E-13  1.3490300E-12  7.9661474E+10  0.4072957    
  1.3490300E-12  1.9761499E-12  1.0284535E+11  0.2997073    
  1.9761499E-12  2.8947901E-12  1.2907554E+11  0.2386455    
  2.8947901E-12  4.2404799E-12  1.5235224E+11  0.1818219    
  4.2404799E-12  6.2117499E-12  1.6845454E+11  0.1569287    
  6.2117499E-12  9.0993801E-12  1.6999802E+11  0.1405847    
  9.0993801E-12  1.3329400E-11  1.5356466E+11  0.1239531    
  1.3329400E-11  1.9525799E-11  1.1931160E+11  0.1197692    
  1.9525799E-11  2.8602700E-11  7.7131735E+10  0.1194798    
  2.8602700E-11  4.1899099E-11  4.1310634E+10  0.1166191    
  4.1899099E-11  6.1376598E-11  1.9679267E+10  0.1486379    
  6.1376598E-11  8.9908601E-11  8.4740613E+09  0.1722481    
  8.9908601E-11  1.3170399E-10  3.0095429E+09  0.2199974    
  1.3170399E-10  1.9292901E-10  9.1901894E+08  0.3324428    
  1.9292901E-10  2.8261499E-10  3.4235334E+08  0.4093420    
  2.8261499E-10  4.1399401E-10  1.7860366E+08  0.4882107    
  4.1399401E-10  5.3157900E-10  1.2222618E+08  0.6142905    
  5.3157900E-10  6.2506200E-10  9.4866496E+07  0.7628515    
  6.2506200E-10  6.8256001E-10  8.1295272E+07   1.084032    
  6.8256001E-10  8.3368101E-10  6.9492296E+07  0.7262598    
  8.3368101E-10  8.7642499E-10  6.0917856E+07   1.479073    
  8.7642499E-10  1.1253500E-09  5.0233672E+07  0.6471550    
  1.1253500E-09  1.4449800E-09  3.8480028E+07  0.6788467    
  1.4449800E-09  1.8553900E-09  2.8969086E+07  0.6672879    
  1.8553900E-09  2.3823701E-09  2.1831810E+07  0.6859428    
  2.3823701E-09  3.0590199E-09  1.6865468E+07  0.6771018    
  3.0590199E-09  3.9278598E-09  1.2625456E+07  0.7236690    
  3.9278598E-09  5.0434799E-09   9656190.      0.6158836    
  5.0434799E-09  6.4759500E-09   7317180.      0.6929687    
  6.4759500E-09  8.3152898E-09   5651587.      0.7279299    
  8.3152898E-09  1.0677000E-08   4227673.      0.7171721    
  1.0677000E-08  1.3709600E-08   3241642.      0.7185287    
  1.3709600E-08  1.7603501E-08   2454190.      0.6975336    
  1.7603501E-08  2.2603301E-08   1857799.      0.7371141    
  2.2603301E-08  2.9023200E-08   1421826.      0.7759976    
  2.9023200E-08  3.7266499E-08   1082142.      0.7732977    
  3.7266499E-08  4.7851199E-08   817203.9      0.7050310    
  4.7851199E-08  6.1442101E-08   620639.6      0.7930679    
  6.1442101E-08  7.8893301E-08   472964.6      0.7885746    
  7.8893301E-08  1.0130100E-07   353868.8      0.7763615    
  1.0130100E-07  1.3007300E-07   274740.0      0.7663441    
  1.3007300E-07  1.6701701E-07   203326.5      0.7938220    
  1.6701701E-07  2.1445400E-07   152425.2      0.8937410    
  2.1445400E-07  2.7536399E-07   113649.7      0.8610881    
  2.7536399E-07  3.5357499E-07   86538.16      0.8878296    
  3.5357499E-07  4.5399901E-07   64349.38      0.8610201    
  4.5399901E-07  5.8294700E-07   49357.46      0.9064327    
  5.8294700E-07  7.4851800E-07   37259.20      0.9152678    
  7.4851800E-07  9.6111603E-07   28138.88      0.8503083    
  9.6111603E-07  1.2341000E-06   21111.51      0.9404768    
  1.2341000E-06  1.3638900E-06   17497.12       1.497643    
  1.3638900E-06  1.5073300E-06   15777.78       1.380732    
  1.5073300E-06  1.5846100E-06   14543.96       2.038855    
  1.5846100E-06  1.6658601E-06   13386.96       1.958008    
  1.6658601E-06  1.8410600E-06   12208.51       1.507637    
  1.8410600E-06  2.0346799E-06   11445.14       1.350442    
  2.0346799E-06  2.2486699E-06   9031.596       1.445202    
  2.2486699E-06  2.4851699E-06   8835.659       1.482652    
  2.4851699E-06  2.6125899E-06   7631.659       2.118809    
  2.6125899E-06  2.7465401E-06   7182.690       2.069556    
  2.7465401E-06  2.8634900E-06   7368.087       2.389295    
  2.8634900E-06  3.0353899E-06   6611.402       1.856640    
  3.0353899E-06  3.3546301E-06   6226.364       1.555171    
  3.3546301E-06  3.7074401E-06   5540.867       1.473511    
  3.7074401E-06  4.0973500E-06   4865.441       1.534802    
  4.0973500E-06  4.3074201E-06   4326.995       2.122906    
  4.3074201E-06  4.5282700E-06   4048.591       2.115818    
  4.5282700E-06  5.0045101E-06   3843.837       1.534999    
  5.0045101E-06  5.5308401E-06   3884.783       1.504756    
  5.5308401E-06  6.2672698E-06   2562.919       1.507581    
  6.2672698E-06  7.1017398E-06   2566.059       1.471043    
  7.1017398E-06  8.0473301E-06   2239.911       1.387467    
  8.0473301E-06  9.1188203E-06   1987.003       1.364174    
  9.1188203E-06  1.0333000E-05   1659.785       1.353263    
  1.0333000E-05  1.1708800E-05   1495.624       1.431723    
  1.1708800E-05  1.3267800E-05   1308.310       1.489420    
  1.3267800E-05  1.5034400E-05   1105.376       1.426098    
  1.5034400E-05  1.7036200E-05   953.5076       1.449169    
  1.7036200E-05  1.9304500E-05   850.4622       1.861473    
  1.9304500E-05  2.1334799E-05   718.5485       1.792805    
  2.1334799E-05  2.1874899E-05   728.8320       3.348031    
  2.1874899E-05  2.3578599E-05   705.0014       2.038625    
  2.3578599E-05  2.4175501E-05   641.2240       3.097303    
  2.4175501E-05  2.4787500E-05   682.2593       3.544691    
  2.4787500E-05  2.6058400E-05   641.1899       2.443787    
  2.6058400E-05  2.8087899E-05   589.8602       2.081976    
  2.8087899E-05  3.1827800E-05   612.8601       1.497382    
  3.1827800E-05  3.4306700E-05   353.8460       1.978289    
  3.4306700E-05  3.5175199E-05   173.7364       4.885893    
  3.5175199E-05  3.6065601E-05   181.7483       4.527801    
  3.6065601E-05  4.0867701E-05   219.3091       1.992512    
  4.0867701E-05  4.6309200E-05   282.9106       1.580662    
  4.6309200E-05  5.2475199E-05   257.8162       1.547371    
  5.2475199E-05  5.6562199E-05   229.6442       1.941242    
  5.6562199E-05  5.9462200E-05   216.4112       2.723776    
  5.9462200E-05  6.2510902E-05   220.9404       2.628102    
  6.2510902E-05  6.7379500E-05   204.9646       1.871090    
  6.7379500E-05  7.6350902E-05   219.4884       1.540634    
  7.6350902E-05  8.6516899E-05   152.1823       1.616706    
  8.6516899E-05  9.8036500E-05   85.41058       2.002336    
  9.8036500E-05  1.1109000E-04   111.0117       1.779422    
  1.1109000E-04  1.1678600E-04   114.4164       2.382434    
  1.1678600E-04  1.2277300E-04   78.97072       2.726887    
  1.2277300E-04  1.2906799E-04   119.3797       2.165557    
  1.2906799E-04  1.3568600E-04   117.3612       2.127372    
  1.3568600E-04  1.4264201E-04   85.94427       2.475236    
  1.4264201E-04  1.4995600E-04   67.18874       2.784910    
  1.4995600E-04  1.5764400E-04   62.20401       2.537972    
  1.5764400E-04  1.6163501E-04   49.94320       4.100279    
  1.6163501E-04  1.6572700E-04   63.24826       3.794504    
  1.6572700E-04  1.6992200E-04   66.09296       3.333091    
  1.6992200E-04  1.7422400E-04   61.74672       3.448716    
  1.7422400E-04  1.8315599E-04   71.44355       2.139189    
  1.8315599E-04  1.9254700E-04   66.06236       2.204618    
  1.9254700E-04  2.0241900E-04   62.26484       2.514956    
  2.0241900E-04  2.1279699E-04   50.06332       2.529570    
  2.1279699E-04  2.2370800E-04   49.14788       2.384807    
  2.2370800E-04  2.3517800E-04   48.47839       2.396223    
  2.3517800E-04  2.4723500E-04   50.40978       2.278758    
  2.4723500E-04  2.5991100E-04   48.33322       2.327741    
  2.5991100E-04  2.7323700E-04   56.21891       2.191146    
  2.7323700E-04  2.8015400E-04   44.25143       3.289880    
  2.8015400E-04  2.8724599E-04   36.79936       3.408891    
  2.8724599E-04  2.9451799E-04   38.52453       3.540364    
  2.9451799E-04  3.0197401E-04   40.16046       3.091841    
  3.0197401E-04  3.0961799E-04   42.16154       3.007746    
  3.0961799E-04  3.1745600E-04   37.15736       3.195179    
  3.1745600E-04  3.3373301E-04   36.19951       2.307135    
  3.3373301E-04  3.5084400E-04   38.49030       2.339449    
  3.5084400E-04  3.6883200E-04   32.99985       2.131816    
  3.6883200E-04  3.8774201E-04   29.84369       2.253735    
  3.8774201E-04  4.0762199E-04   27.97137       2.408701    
  4.0762199E-04  4.2852099E-04   24.68371       2.449549    
  4.2852099E-04  4.5049199E-04   22.72670       2.322664    
  4.5049199E-04  4.7358900E-04   23.15871       2.391817    
  4.7358900E-04  4.9787102E-04   21.46761       2.343533    
  4.9787102E-04  5.1047403E-04   20.64150       3.364055    
  5.1047403E-04  5.2339700E-04   21.31208       3.354150    
  5.2339700E-04  5.3664698E-04   17.60794       3.333333    
  5.3664698E-04  5.5023201E-04   17.63377       3.434399    
  5.5023201E-04  5.7844300E-04   16.59859       2.300828    
  5.7844300E-04  6.0810102E-04   16.12309       2.446620    
  6.0810102E-04  6.3927902E-04   14.68872       2.408574    
  6.3927902E-04  6.7205500E-04   12.74553       2.462595    
  6.7205500E-04  7.0651202E-04   11.74475       2.581827    
  7.0651202E-04  7.4273598E-04   10.04388       2.507670    
  7.4273598E-04  7.8081700E-04   8.920030       2.278827    
  7.8081700E-04  8.2085002E-04   7.904974       2.526395    
  8.2085002E-04  8.6293602E-04   7.270847       2.410579    
  8.6293602E-04  9.0717903E-04   6.615629       2.286242    
  9.0717903E-04  9.5369201E-04   5.808422       2.213350    
  9.5369201E-04  9.6163998E-04   5.956918       5.794061    
  9.6163998E-04  9.7783399E-04   5.128791       3.918247    
  9.7783399E-04  1.0025901E-03   4.939065       3.347633    
  1.0025901E-03  1.0539900E-03   4.933755       2.413049    
  1.0539900E-03  1.1080300E-03   4.605838       2.429638    
  1.1080300E-03  1.1648400E-03   4.479981       2.383436    
  1.1648400E-03  1.1943300E-03   4.172470       3.387889    
  1.1943300E-03  1.2245600E-03   4.197388       3.538270    
  1.2245600E-03  1.2873500E-03   4.070354       2.438375    
  1.2873500E-03  1.3533500E-03   4.102278       2.344854    
  1.3533500E-03  1.4227401E-03   4.181242       2.256165    
  1.4227401E-03  1.4956900E-03   4.046858       2.239085    
  1.4956900E-03  1.5335500E-03   4.252232       3.216995    
  1.5335500E-03  1.5723699E-03   4.201051       3.328520    
  1.5723699E-03  1.6121800E-03   4.196594       3.237272    
  1.6121800E-03  1.6529900E-03   4.184379       3.190426    
  1.6529900E-03  1.7377400E-03   4.080581       2.481967    
  1.7377400E-03  1.8268300E-03   4.195049       2.436830    
  1.8268300E-03  1.8730800E-03   3.883329       3.424798    
  1.8730800E-03  1.9205000E-03   3.789921       3.343268    
  1.9205000E-03  1.9691200E-03   3.915289       3.383207    
  1.9691200E-03  2.0189700E-03   4.079677       3.456508    
  2.0189700E-03  2.1224800E-03   3.737435       2.508625    
  2.1224800E-03  2.2313001E-03   3.820644       2.483177    
  2.2313001E-03  2.2688799E-03   3.872431       3.706727    
  2.2688799E-03  2.3068599E-03   3.602504       3.919998    
  2.3068599E-03  2.3457000E-03   3.538045       3.887636    
  2.3457000E-03  2.3652499E-03   3.572391       5.280475    
  2.3652499E-03  2.3852000E-03   3.794954       5.646217    
  2.3852000E-03  2.4251300E-03   3.445367       4.148110    
  2.4251300E-03  2.4659701E-03   3.628557       3.959404    
  2.4659701E-03  2.5923999E-03   3.146316       2.568347    
  2.5923999E-03  2.7253199E-03   3.101032       2.514578    
  2.7253199E-03  2.8650500E-03   2.834589       2.668028    
  2.8650500E-03  3.0119400E-03   2.876517       2.470756    
  3.0119400E-03  3.0881900E-03   2.601622       3.300407    
  3.0881900E-03  3.1663701E-03   2.728092       3.310757    
  3.1663701E-03  3.2465300E-03   2.615441       3.305131    
  3.2465300E-03  3.3287101E-03   2.609787       3.406137    
  3.3287101E-03  3.4993801E-03   2.369370       2.628925    
  3.4993801E-03  3.6787901E-03   2.334141       2.753508    
  3.6787901E-03  3.8674099E-03   2.283172       2.514323    
  3.8674099E-03  4.0656999E-03   2.216253       2.730784    
  4.0656999E-03  4.2741499E-03   2.188451       2.532892    
  4.2741499E-03  4.4932901E-03   1.994777       2.635951    
  4.4932901E-03  4.6070400E-03   1.904358       3.797058    
  4.6070400E-03  4.7236700E-03   2.023323       3.312142    
  4.7236700E-03  4.8432499E-03   1.931115       3.538818    
  4.8432499E-03  4.9658502E-03   1.939038       3.589856    
  4.9658502E-03  5.2204598E-03   1.829813       2.695920    
  5.2204598E-03  5.4881200E-03   1.654909       2.506722    
  5.4881200E-03  5.7695000E-03   1.623386       2.450714    
  5.7695000E-03  5.9155500E-03   1.544913       3.806981    
  5.9155500E-03  6.0653100E-03   1.613035       3.590787    
  6.0653100E-03  6.2188501E-03   1.548156       4.078569    
  6.2188501E-03  6.3762800E-03   1.379323       3.758471    
  6.3762800E-03  6.5377001E-03   1.383742       3.476589    
  6.5377001E-03  6.5923799E-03   1.559703       6.111080    
  6.5923799E-03  6.6475999E-03   1.271917       6.720821    
  6.6475999E-03  6.7031998E-03   1.123395       6.378754    
  6.7031998E-03  6.8728901E-03   1.283149       3.647660    
  6.8728901E-03  7.0468802E-03   1.289870       3.705078    
  7.0468802E-03  7.2252699E-03   1.230139       3.445793    
  7.2252699E-03  7.4081798E-03   1.182263       4.008974    
  7.4081798E-03  7.5957198E-03   1.154006       3.908125    
  7.5957198E-03  7.7880099E-03   1.129967       3.931417    
  7.7880099E-03  7.9851598E-03   1.134931       4.165320    
  7.9851598E-03  8.1873098E-03   1.145233       3.783099    
  8.1873098E-03  8.3945701E-03   1.100462       3.895636    
  8.3945701E-03  8.6070802E-03  0.9934630       3.803637    
  8.6070802E-03  8.8249696E-03   1.059794       3.658474    
  8.8249696E-03  9.0483697E-03   1.076162       3.939486    
  9.0483697E-03  9.2774397E-03  0.9557713       3.813014    
  9.2774397E-03  9.5122904E-03  0.9907969       4.027971    
  9.5122904E-03  9.7530996E-03  0.9874819       4.131260    
  9.7530996E-03  9.9999998E-03  0.9032008       3.902272    
  9.9999998E-03  1.0253200E-02  0.9270892       3.910536    
  1.0253200E-02  1.0512700E-02  0.8771163       3.935664    
  1.0512700E-02  1.0778800E-02  0.9056844       4.242328    
  1.0778800E-02  1.1051700E-02  0.8883109       4.022398    
  1.1051700E-02  1.1331500E-02  0.8419139       3.709015    
  1.1331500E-02  1.1618300E-02  0.7809180       3.988207    
  1.1618300E-02  1.1912500E-02  0.7914752       3.655880    
  1.1912500E-02  1.2214000E-02  0.7777370       4.175453    
  1.2214000E-02  1.2523200E-02  0.8198579       3.653382    
  1.2523200E-02  1.2840200E-02  0.7262583       3.968867    
  1.2840200E-02  1.3165300E-02  0.7845646       3.802352    
  1.3165300E-02  1.3498600E-02  0.7215519       4.302939    
  1.3498600E-02  1.3840300E-02  0.7692321       3.865169    
  1.3840300E-02  1.4190700E-02  0.6887139       3.808384    
  1.4190700E-02  1.4549900E-02  0.6853079       3.713970    
  1.4549900E-02  1.4918300E-02  0.6864012       3.844981    
  1.4918300E-02  1.5295900E-02  0.6776918       3.845864    
  1.5295900E-02  1.5683100E-02  0.6347606       4.060093    
  1.5683100E-02  1.6080100E-02  0.6821561       4.238371    
  1.6080100E-02  1.6487200E-02  0.6245254       4.210418    
  1.6487200E-02  1.6904600E-02  0.6353460       3.680274    
  1.6904600E-02  1.7332500E-02  0.5647648       3.784014    
  1.7332500E-02  1.7771300E-02  0.6095425       4.228559    
  1.7771300E-02  1.8221200E-02  0.5528286       4.232667    
  1.8221200E-02  1.8682500E-02  0.5658507       4.111939    
  1.8682500E-02  1.9155400E-02  0.5126802       4.012163    
  1.9155400E-02  1.9640300E-02  0.5769258       3.966527    
  1.9640300E-02  2.0000000E-02  0.5006598       4.636285    
