 # Detector n:            1   HeIInflux 
 # N. of energy intervals         260
  1.0000100E-14  2.0000000E-13  2.8210926E+10   12.64478    
  2.0000000E-13  2.9297300E-13  8.1229988E+10   10.17902    
  2.9297300E-13  4.2916701E-13  8.0732717E+10   9.075843    
  4.2916701E-13  6.2867300E-13  1.7014887E+11   5.059089    
  6.2867300E-13  9.2092198E-13  2.1780803E+11   2.299486    
  9.2092198E-13  1.3490300E-12  3.0993259E+11   4.972034    
  1.3490300E-12  1.9761499E-12  4.1880158E+11   3.766010    
  1.9761499E-12  2.8947901E-12  5.2075214E+11   2.371553    
  2.8947901E-12  4.2404799E-12  6.4501783E+11  0.9434812    
  4.2404799E-12  6.2117499E-12  7.5440698E+11   1.205137    
  6.2117499E-12  9.0993801E-12  7.4777952E+11  0.7803448    
  9.0993801E-12  1.3329400E-11  7.0427889E+11  0.6590849    
  1.3329400E-11  1.9525799E-11  5.3952578E+11   1.015259    
  1.9525799E-11  2.8602700E-11  3.3099245E+11  0.4838579    
  2.8602700E-11  4.1899099E-11  1.5942432E+11   1.783035    
  4.1899099E-11  6.1376598E-11  6.9103821E+10  0.9629647    
  6.1376598E-11  8.9908601E-11  2.5933263E+10   1.583678    
  8.9908601E-11  1.3170399E-10  9.2562248E+09   1.543796    
  1.3170399E-10  1.9292901E-10  3.6361649E+09   2.849653    
  1.9292901E-10  2.8261499E-10  1.7920371E+09   1.119530    
  2.8261499E-10  4.1399401E-10  1.0300892E+09  0.7493773    
  4.1399401E-10  5.3157900E-10  7.3103309E+08   1.435233    
  5.3157900E-10  6.2506200E-10  5.7402880E+08   2.412998    
  6.2506200E-10  6.8256001E-10  4.9728064E+08  0.5957928    
  6.8256001E-10  8.3368101E-10  4.2812000E+08   1.400292    
  8.3368101E-10  8.7642499E-10  3.9202365E+08   2.413034    
  8.7642499E-10  1.1253500E-09  3.2222320E+08  0.7056367    
  1.1253500E-09  1.4449800E-09  2.4359824E+08   1.246310    
  1.4449800E-09  1.8553900E-09  1.8655251E+08  0.9338754    
  1.8553900E-09  2.3823701E-09  1.4113544E+08   2.004629    
  2.3823701E-09  3.0590199E-09  1.0947726E+08   1.900547    
  3.0590199E-09  3.9278598E-09  8.2560568E+07   1.627283    
  3.9278598E-09  5.0434799E-09  6.3312004E+07   1.260687    
  5.0434799E-09  6.4759500E-09  4.8584056E+07   1.840088    
  6.4759500E-09  8.3152898E-09  3.7277256E+07   2.297271    
  8.3152898E-09  1.0677000E-08  2.8419416E+07   1.075167    
  1.0677000E-08  1.3709600E-08  2.2054182E+07  0.6925637    
  1.3709600E-08  1.7603501E-08  1.7055528E+07   1.372501    
  1.7603501E-08  2.2603301E-08  1.2874921E+07   2.306551    
  2.2603301E-08  2.9023200E-08   9880507.       1.987457    
  2.9023200E-08  3.7266499E-08   7383090.      0.6960893    
  3.7266499E-08  4.7851199E-08   5619304.      0.4332172    
  4.7851199E-08  6.1442101E-08   4345614.       1.307325    
  6.1442101E-08  7.8893301E-08   3185299.      0.8595210    
  7.8893301E-08  1.0130100E-07   2493158.       2.823279    
  1.0130100E-07  1.3007300E-07   1951806.       3.240257    
  1.3007300E-07  1.6701701E-07   1437856.      0.5961666    
  1.6701701E-07  2.1445400E-07   1075728.       1.682417    
  2.1445400E-07  2.7536399E-07   823774.8      0.6397868    
  2.7536399E-07  3.5357499E-07   613580.9       2.367410    
  3.5357499E-07  4.5399901E-07   471062.1      0.7102064    
  4.5399901E-07  5.8294700E-07   352634.2       2.412803    
  5.8294700E-07  7.4851800E-07   262723.3      0.7855889    
  7.4851800E-07  9.6111603E-07   195309.4      0.9975572    
  9.6111603E-07  1.2341000E-06   144926.0       2.271595    
  1.2341000E-06  1.3638900E-06   117888.7       2.852740    
  1.3638900E-06  1.5073300E-06   105278.5       3.496149    
  1.5073300E-06  1.5846100E-06   99561.71       4.334467    
  1.5846100E-06  1.6658601E-06   85717.68       4.430079    
  1.6658601E-06  1.8410600E-06   86434.64       1.813436    
  1.8410600E-06  2.0346799E-06   75903.68       1.956287    
  2.0346799E-06  2.2486699E-06   67755.59       2.442795    
  2.2486699E-06  2.4851699E-06   58493.39       2.245052    
  2.4851699E-06  2.6125899E-06   53570.98       6.722613    
  2.6125899E-06  2.7465401E-06   52807.32       4.824400    
  2.7465401E-06  2.8634900E-06   47595.58       8.902199    
  2.8634900E-06  3.0353899E-06   45893.01       5.141062    
  3.0353899E-06  3.3546301E-06   40911.78       6.355668    
  3.3546301E-06  3.7074401E-06   37228.86      0.6156792    
  3.7074401E-06  4.0973500E-06   32855.95       3.462764    
  4.0973500E-06  4.3074201E-06   28484.94       3.536994    
  4.3074201E-06  4.5282700E-06   26732.16       3.697745    
  4.5282700E-06  5.0045101E-06   24843.85       3.607623    
  5.0045101E-06  5.5308401E-06   24541.86       5.192182    
  5.5308401E-06  6.2672698E-06   17150.46       4.137352    
  6.2672698E-06  7.1017398E-06   17039.31       2.589580    
  7.1017398E-06  8.0473301E-06   14444.71       4.944100    
  8.0473301E-06  9.1188203E-06   12318.95       3.575864    
  9.1188203E-06  1.0333000E-05   10485.30       1.541706    
  1.0333000E-05  1.1708800E-05   8531.779       2.367801    
  1.1708800E-05  1.3267800E-05   8053.038       4.283801    
  1.3267800E-05  1.5034400E-05   6480.374       2.509586    
  1.5034400E-05  1.7036200E-05   5114.655       5.484560    
  1.7036200E-05  1.9304500E-05   4868.249       1.340552    
  1.9304500E-05  2.1334799E-05   3934.164       4.068131    
  2.1334799E-05  2.1874899E-05   3610.453       6.464277    
  2.1874899E-05  2.3578599E-05   3765.742       2.915872    
  2.3578599E-05  2.4175501E-05   3051.437       2.949915    
  2.4175501E-05  2.4787500E-05   3052.001       5.262722    
  2.4787500E-05  2.6058400E-05   3112.337       2.954662    
  2.6058400E-05  2.8087899E-05   2810.015       5.576965    
  2.8087899E-05  3.1827800E-05   3128.264       2.740998    
  3.1827800E-05  3.4306700E-05   1846.192       6.712127    
  3.4306700E-05  3.5175199E-05   927.7733       13.64701    
  3.5175199E-05  3.6065601E-05   944.5743       9.408232    
  3.6065601E-05  4.0867701E-05   1200.356       6.386189    
  4.0867701E-05  4.6309200E-05   1363.822       5.950616    
  4.6309200E-05  5.2475199E-05   1117.742       4.173912    
  5.2475199E-05  5.6562199E-05   991.7071       6.344688    
  5.6562199E-05  5.9462200E-05   941.0956       10.77112    
  5.9462200E-05  6.2510902E-05   803.2734       10.65625    
  6.2510902E-05  6.7379500E-05   890.9216       2.218733    
  6.7379500E-05  7.6350902E-05   774.5243       3.111404    
  7.6350902E-05  8.6516899E-05   618.5641       4.536021    
  8.6516899E-05  9.8036500E-05   338.8026       7.390219    
  9.8036500E-05  1.1109000E-04   486.5562       4.785851    
  1.1109000E-04  1.1678600E-04   433.5003       11.40825    
  1.1678600E-04  1.2277300E-04   281.1999       17.11729    
  1.2277300E-04  1.2906799E-04   415.9981       11.16271    
  1.2906799E-04  1.3568600E-04   403.3061       8.928344    
  1.3568600E-04  1.4264201E-04   346.9088       4.520756    
  1.4264201E-04  1.4995600E-04   233.4016       10.40410    
  1.4995600E-04  1.5764400E-04   216.8573       10.43126    
  1.5764400E-04  1.6163501E-04   155.3747       19.87431    
  1.6163501E-04  1.6572700E-04   221.5883       10.64863    
  1.6572700E-04  1.6992200E-04   183.8609       6.071902    
  1.6992200E-04  1.7422400E-04   194.4929       10.23441    
  1.7422400E-04  1.8315599E-04   245.6092       10.55230    
  1.8315599E-04  1.9254700E-04   186.6440       8.272821    
  1.9254700E-04  2.0241900E-04   184.6467       6.659906    
  2.0241900E-04  2.1279699E-04   174.8389       18.27559    
  2.1279699E-04  2.2370800E-04   145.5250       8.923706    
  2.2370800E-04  2.3517800E-04   163.3127       6.773268    
  2.3517800E-04  2.4723500E-04   156.6505       9.340160    
  2.4723500E-04  2.5991100E-04   182.1915       11.60632    
  2.5991100E-04  2.7323700E-04   157.7338       4.427629    
  2.7323700E-04  2.8015400E-04   133.9337       10.92780    
  2.8015400E-04  2.8724599E-04   87.01205       31.62642    
  2.8724599E-04  2.9451799E-04   110.7224       8.694401    
  2.9451799E-04  3.0197401E-04   87.96346       13.06802    
  3.0197401E-04  3.0961799E-04   112.6361       20.98576    
  3.0961799E-04  3.1745600E-04   119.4595       8.273704    
  3.1745600E-04  3.3373301E-04   95.49184       5.520173    
  3.3373301E-04  3.5084400E-04   96.83362       9.548576    
  3.5084400E-04  3.6883200E-04   96.42202       3.512344    
  3.6883200E-04  3.8774201E-04   87.63017       5.050343    
  3.8774201E-04  4.0762199E-04   69.26315       5.578345    
  4.0762199E-04  4.2852099E-04   54.40621       11.24571    
  4.2852099E-04  4.5049199E-04   61.01448       10.60379    
  4.5049199E-04  4.7358900E-04   68.06161       20.08048    
  4.7358900E-04  4.9787102E-04   65.36371       14.74374    
  4.9787102E-04  5.1047403E-04   70.41425       14.23692    
  5.1047403E-04  5.2339700E-04   73.93129       10.34812    
  5.2339700E-04  5.3664698E-04   43.28638       16.85142    
  5.3664698E-04  5.5023201E-04   66.85123       6.488242    
  5.5023201E-04  5.7844300E-04   53.70844       5.557539    
  5.7844300E-04  6.0810102E-04   38.54252       6.236047    
  6.0810102E-04  6.3927902E-04   41.09730       9.922703    
  6.3927902E-04  6.7205500E-04   37.01990       9.851485    
  6.7205500E-04  7.0651202E-04   34.56765       6.439963    
  7.0651202E-04  7.4273598E-04   32.28426       8.726030    
  7.4273598E-04  7.8081700E-04   34.96376       8.244349    
  7.8081700E-04  8.2085002E-04   22.92969       17.07977    
  8.2085002E-04  8.6293602E-04   22.37644       12.92225    
  8.6293602E-04  9.0717903E-04   24.73593       17.27590    
  9.0717903E-04  9.5369201E-04   17.00485       13.01965    
  9.5369201E-04  9.6163998E-04   18.25291       61.60720    
  9.6163998E-04  9.7783399E-04   20.05923       29.43590    
  9.7783399E-04  1.0025901E-03   16.27132       13.39787    
  1.0025901E-03  1.0539900E-03   15.72164       10.15163    
  1.0539900E-03  1.1080300E-03   18.26904       7.003320    
  1.1080300E-03  1.1648400E-03   15.93188       8.062310    
  1.1648400E-03  1.1943300E-03   14.25557       7.723819    
  1.1943300E-03  1.2245600E-03   17.46339       12.38237    
  1.2245600E-03  1.2873500E-03   14.14365       3.879557    
  1.2873500E-03  1.3533500E-03   12.44066       8.174881    
  1.3533500E-03  1.4227401E-03   15.19642       10.41796    
  1.4227401E-03  1.4956900E-03   16.47062       4.158052    
  1.4956900E-03  1.5335500E-03   15.21410       22.08832    
  1.5335500E-03  1.5723699E-03   16.05185       14.73815    
  1.5723699E-03  1.6121800E-03   14.98994       14.33416    
  1.6121800E-03  1.6529900E-03   10.30941       11.44823    
  1.6529900E-03  1.7377400E-03   13.94257       8.301320    
  1.7377400E-03  1.8268300E-03   14.32241       6.545436    
  1.8268300E-03  1.8730800E-03   8.848066       12.20147    
  1.8730800E-03  1.9205000E-03   16.44829       17.16533    
  1.9205000E-03  1.9691200E-03   13.11731       7.695237    
  1.9691200E-03  2.0189700E-03   10.65003       14.97768    
  2.0189700E-03  2.1224800E-03   9.812230       12.62900    
  2.1224800E-03  2.2313001E-03   10.24209       11.15112    
  2.2313001E-03  2.2688799E-03   11.47661       9.624122    
  2.2688799E-03  2.3068599E-03   8.136329       14.50631    
  2.3068599E-03  2.3457000E-03   12.74818       17.07804    
  2.3457000E-03  2.3652499E-03   7.011682       21.18706    
  2.3652499E-03  2.3852000E-03   8.558788       31.35034    
  2.3852000E-03  2.4251300E-03   6.784381       15.81255    
  2.4251300E-03  2.4659701E-03   10.84157       22.07265    
  2.4659701E-03  2.5923999E-03   8.124563       5.172950    
  2.5923999E-03  2.7253199E-03   7.492207       18.68045    
  2.7253199E-03  2.8650500E-03   7.315804       7.826376    
  2.8650500E-03  3.0119400E-03   8.587122       9.288074    
  3.0119400E-03  3.0881900E-03   6.824077       11.10479    
  3.0881900E-03  3.1663701E-03   7.809038       8.571011    
  3.1663701E-03  3.2465300E-03   6.431156       20.86167    
  3.2465300E-03  3.3287101E-03   5.688639       13.80525    
  3.3287101E-03  3.4993801E-03   5.718710       8.378332    
  3.4993801E-03  3.6787901E-03   6.314756       7.662188    
  3.6787901E-03  3.8674099E-03   6.040274       9.397805    
  3.8674099E-03  4.0656999E-03   5.851330       12.40716    
  4.0656999E-03  4.2741499E-03   4.838277       14.06645    
  4.2741499E-03  4.4932901E-03   5.757355       9.555066    
  4.4932901E-03  4.6070400E-03   4.848285       5.983605    
  4.6070400E-03  4.7236700E-03   3.343051       10.44307    
  4.7236700E-03  4.8432499E-03   3.663744       7.653356    
  4.8432499E-03  4.9658502E-03   5.761253       18.26943    
  4.9658502E-03  5.2204598E-03   3.779556       6.741743    
  5.2204598E-03  5.4881200E-03   3.749187       4.393418    
  5.4881200E-03  5.7695000E-03   3.395587       10.07140    
  5.7695000E-03  5.9155500E-03   3.556564       17.29455    
  5.9155500E-03  6.0653100E-03   3.973702       22.41343    
  6.0653100E-03  6.2188501E-03   3.324191       14.01624    
  6.2188501E-03  6.3762800E-03   2.599557       16.21721    
  6.3762800E-03  6.5377001E-03   2.932025       11.39891    
  6.5377001E-03  6.5923799E-03   1.725544       31.00641    
  6.5923799E-03  6.6475999E-03   2.916083       20.86762    
  6.6475999E-03  6.7031998E-03   3.074058       15.16275    
  6.7031998E-03  6.8728901E-03   2.248856       27.19165    
  6.8728901E-03  7.0468802E-03   3.096102       26.05988    
  7.0468802E-03  7.2252699E-03   2.957676       13.60038    
  7.2252699E-03  7.4081798E-03   3.020296       8.371971    
  7.4081798E-03  7.5957198E-03   3.100900       16.20675    
  7.5957198E-03  7.7880099E-03   1.871951       25.36967    
  7.7880099E-03  7.9851598E-03   2.178435       14.90290    
  7.9851598E-03  8.1873098E-03   1.883969       12.85940    
  8.1873098E-03  8.3945701E-03   2.077797       15.98311    
  8.3945701E-03  8.6070802E-03   1.876839       13.85149    
  8.6070802E-03  8.8249696E-03   2.627164       11.35339    
  8.8249696E-03  9.0483697E-03   2.301791       16.18509    
  9.0483697E-03  9.2774397E-03   1.706563       12.61603    
  9.2774397E-03  9.5122904E-03   2.146095       12.88217    
  9.5122904E-03  9.7530996E-03   2.622512       7.546279    
  9.7530996E-03  9.9999998E-03   1.879629       17.33267    
  9.9999998E-03  1.0253200E-02   1.740407       12.50144    
  1.0253200E-02  1.0512700E-02   2.389107       11.29918    
  1.0512700E-02  1.0778800E-02   2.202374       14.80656    
  1.0778800E-02  1.1051700E-02   1.575405       12.62726    
  1.1051700E-02  1.1331500E-02   1.484500       22.05540    
  1.1331500E-02  1.1618300E-02   1.403687       26.62386    
  1.1618300E-02  1.1912500E-02   1.243927       7.641154    
  1.1912500E-02  1.2214000E-02   1.463871       6.084281    
  1.2214000E-02  1.2523200E-02   1.487854       10.23926    
  1.2523200E-02  1.2840200E-02   1.078341       25.24599    
  1.2840200E-02  1.3165300E-02   1.892102       7.840132    
  1.3165300E-02  1.3498600E-02   1.450446       15.08738    
  1.3498600E-02  1.3840300E-02   1.373255       7.310884    
  1.3840300E-02  1.4190700E-02   1.414132       10.74023    
  1.4190700E-02  1.4549900E-02   1.067603       10.53937    
  1.4549900E-02  1.4918300E-02   1.037962       17.24133    
  1.4918300E-02  1.5295900E-02   1.449400       14.34205    
  1.5295900E-02  1.5683100E-02   1.319741       15.80075    
  1.5683100E-02  1.6080100E-02  0.8460526       20.29249    
  1.6080100E-02  1.6487200E-02  0.9063606       16.86643    
  1.6487200E-02  1.6904600E-02   1.036112       23.44605    
  1.6904600E-02  1.7332500E-02  0.9385795       10.93927    
  1.7332500E-02  1.7771300E-02  0.6602718       16.04299    
  1.7771300E-02  1.8221200E-02  0.8691078       17.93946    
  1.8221200E-02  1.8682500E-02  0.8268260       17.75625    
  1.8682500E-02  1.9155400E-02  0.8609303       18.76169    
  1.9155400E-02  1.9640300E-02  0.6990834       20.23201    
  1.9640300E-02  2.0000000E-02  0.8851104       15.46294    
