 # Detector n:  1  HeIInflux 
 # N. of energy intervals 260
  1.0000100E-14  2.0000000E-13  3.6108964E+10   4.426844    
  2.0000000E-13  2.9297300E-13  8.6446891E+10   4.674268    
  2.9297300E-13  4.2916701E-13  1.2592941E+11   3.176529    
  4.2916701E-13  6.2867300E-13  1.7436007E+11   2.185608    
  6.2867300E-13  9.2092198E-13  2.4472627E+11   1.675353    
  9.2092198E-13  1.3490300E-12  3.3373058E+11   1.037200    
  1.3490300E-12  1.9761499E-12  4.4770394E+11  0.8224389    
  1.9761499E-12  2.8947901E-12  5.6548780E+11  0.6397272    
  2.8947901E-12  4.2404799E-12  6.8973186E+11  0.4120083    
  4.2404799E-12  6.2117499E-12  7.7634706E+11  0.3880953    
  6.2117499E-12  9.0993801E-12  7.9958501E+11  0.3087504    
  9.0993801E-12  1.3329400E-11  7.2104280E+11  0.2554851    
  1.3329400E-11  1.9525799E-11  5.4840869E+11  0.2837890    
  1.9525799E-11  2.8602700E-11  3.2899059E+11  0.2999040    
  2.8602700E-11  4.1899099E-11  1.5484959E+11  0.3298298    
  4.1899099E-11  6.1376598E-11  6.2487798E+10  0.4119161    
  6.1376598E-11  8.9908601E-11  2.4649628E+10  0.5107008    
  8.9908601E-11  1.3170399E-10  9.8198354E+09  0.6764506    
  1.3170399E-10  1.9292901E-10  4.1768384E+09  0.8432109    
  1.9292901E-10  2.8261499E-10  2.2684160E+09  0.8685032    
  2.8261499E-10  4.1399401E-10  1.3938697E+09   1.082560    
  4.1399401E-10  5.3157900E-10  1.0016596E+09   1.262563    
  5.3157900E-10  6.2506200E-10  8.1055162E+08   1.281843    
  6.2506200E-10  6.8256001E-10  6.8387731E+08   1.908369    
  6.8256001E-10  8.3368101E-10  6.2209011E+08   1.260407    
  8.3368101E-10  8.7642499E-10  5.3571491E+08   2.642257    
  8.7642499E-10  1.1253500E-09  4.5723123E+08   1.168798    
  1.1253500E-09  1.4449800E-09  3.5109050E+08   1.212044    
  1.4449800E-09  1.8553900E-09  2.7036477E+08   1.053174    
  1.8553900E-09  2.3823701E-09  2.0807445E+08   1.308157    
  2.3823701E-09  3.0590199E-09  1.6162706E+08   1.120250    
  3.0590199E-09  3.9278598E-09  1.2317423E+08   1.009288    
  3.9278598E-09  5.0434799E-09  9.5722144E+07   1.288589    
  5.0434799E-09  6.4759500E-09  7.6105192E+07   1.115819    
  6.4759500E-09  8.3152898E-09  5.7740852E+07   1.270050    
  8.3152898E-09  1.0677000E-08  4.5037708E+07   1.226332    
  1.0677000E-08  1.3709600E-08  3.4175740E+07   1.169976    
  1.3709600E-08  1.7603501E-08  2.6277838E+07   1.214321    
  1.7603501E-08  2.2603301E-08  2.0638374E+07   1.095143    
  2.2603301E-08  2.9023200E-08  1.6047616E+07   1.179791    
  2.9023200E-08  3.7266499E-08  1.2478152E+07   1.188031    
  3.7266499E-08  4.7851199E-08   9558572.       1.218940    
  4.7851199E-08  6.1442101E-08   7294490.       1.515939    
  6.1442101E-08  7.8893301E-08   5623352.       1.265327    
  7.8893301E-08  1.0130100E-07   4399894.       1.180649    
  1.0130100E-07  1.3007300E-07   3353307.       1.219894    
  1.3007300E-07  1.6701701E-07   2596342.       1.336601    
  1.6701701E-07  2.1445400E-07   1951136.       1.368592    
  2.1445400E-07  2.7536399E-07   1473023.       1.380830    
  2.7536399E-07  3.5357499E-07   1176687.       1.554224    
  3.5357499E-07  4.5399901E-07   866131.8       1.184658    
  4.5399901E-07  5.8294700E-07   676833.1       1.471791    
  5.8294700E-07  7.4851800E-07   518294.8       1.364034    
  7.4851800E-07  9.6111603E-07   389326.4       1.351831    
  9.6111603E-07  1.2341000E-06   289983.2       1.456535    
  1.2341000E-06  1.3638900E-06   246429.7       2.278216    
  1.3638900E-06  1.5073300E-06   207412.3       2.181612    
  1.5073300E-06  1.5846100E-06   193517.5       3.106193    
  1.5846100E-06  1.6658601E-06   190306.3       3.579480    
  1.6658601E-06  1.8410600E-06   174741.3       2.386057    
  1.8410600E-06  2.0346799E-06   158941.0       1.926041    
  2.0346799E-06  2.2486699E-06   138252.6       2.380934    
  2.2486699E-06  2.4851699E-06   129849.2       2.296035    
  2.4851699E-06  2.6125899E-06   116368.0       3.080811    
  2.6125899E-06  2.7465401E-06   106834.7       3.084570    
  2.7465401E-06  2.8634900E-06   106075.8       3.125744    
  2.8634900E-06  3.0353899E-06   101198.0       2.731897    
  3.0353899E-06  3.3546301E-06   92869.91       2.257935    
  3.3546301E-06  3.7074401E-06   81061.09       2.295381    
  3.7074401E-06  4.0973500E-06   71298.91       2.156223    
  4.0973500E-06  4.3074201E-06   65477.09       2.952471    
  4.3074201E-06  4.5282700E-06   60490.63       3.736154    
  4.5282700E-06  5.0045101E-06   57441.85       2.410254    
  5.0045101E-06  5.5308401E-06   56140.32       2.070693    
  5.5308401E-06  6.2672698E-06   39191.38       2.410290    
  6.2672698E-06  7.1017398E-06   38558.10       2.174253    
  7.1017398E-06  8.0473301E-06   32455.16       2.170338    
  8.0473301E-06  9.1188203E-06   26920.00       2.277090    
  9.1188203E-06  1.0333000E-05   24711.54       2.594257    
  1.0333000E-05  1.1708800E-05   21440.97       2.059994    
  1.1708800E-05  1.3267800E-05   17619.73       2.358956    
  1.3267800E-05  1.5034400E-05   15947.19       2.332451    
  1.5034400E-05  1.7036200E-05   13429.89       2.323431    
  1.7036200E-05  1.9304500E-05   11134.59       2.821981    
  1.9304500E-05  2.1334799E-05   9783.652       2.669155    
  2.1334799E-05  2.1874899E-05   9186.790       5.290703    
  2.1874899E-05  2.3578599E-05   8952.567       3.516159    
  2.3578599E-05  2.4175501E-05   7495.206       6.664457    
  2.4175501E-05  2.4787500E-05   8098.353       5.648652    
  2.4787500E-05  2.6058400E-05   7159.920       4.035403    
  2.6058400E-05  2.8087899E-05   7408.024       2.635980    
  2.8087899E-05  3.1827800E-05   8330.077       1.979767    
  3.1827800E-05  3.4306700E-05   5369.494       3.569546    
  3.4306700E-05  3.5175199E-05   2761.403       7.289986    
  3.5175199E-05  3.6065601E-05   2083.374       8.277098    
  3.6065601E-05  4.0867701E-05   3199.379       2.706289    
  4.0867701E-05  4.6309200E-05   3645.661       2.718087    
  4.6309200E-05  5.2475199E-05   3005.940       3.114016    
  5.2475199E-05  5.6562199E-05   2845.995       4.233881    
  5.6562199E-05  5.9462200E-05   2562.557       4.107637    
  5.9462200E-05  6.2510902E-05   2448.346       4.596638    
  6.2510902E-05  6.7379500E-05   2315.523       3.556220    
  6.7379500E-05  7.6350902E-05   2261.998       2.847814    
  7.6350902E-05  8.6516899E-05   1676.364       3.243419    
  8.6516899E-05  9.8036500E-05   984.5004       3.873599    
  9.8036500E-05  1.1109000E-04   1108.992       3.415378    
  1.1109000E-04  1.1678600E-04   1152.919       4.796283    
  1.1678600E-04  1.2277300E-04   835.2446       5.271815    
  1.2277300E-04  1.2906799E-04   1127.032       5.207893    
  1.2906799E-04  1.3568600E-04   1128.696       4.100245    
  1.3568600E-04  1.4264201E-04   927.0696       4.876309    
  1.4264201E-04  1.4995600E-04   669.6189       5.164291    
  1.4995600E-04  1.5764400E-04   554.3629       5.552653    
  1.5764400E-04  1.6163501E-04   583.3906       7.996665    
  1.6163501E-04  1.6572700E-04   488.0619       8.208611    
  1.6572700E-04  1.6992200E-04   568.5361       8.504350    
  1.6992200E-04  1.7422400E-04   516.8563       8.442401    
  1.7422400E-04  1.8315599E-04   570.0415       5.275910    
  1.8315599E-04  1.9254700E-04   596.0482       4.977210    
  1.9254700E-04  2.0241900E-04   511.0716       5.334876    
  2.0241900E-04  2.1279699E-04   426.6757       5.694057    
  2.1279699E-04  2.2370800E-04   400.8488       6.353607    
  2.2370800E-04  2.3517800E-04   392.2979       5.653786    
  2.3517800E-04  2.4723500E-04   424.1184       5.264457    
  2.4723500E-04  2.5991100E-04   392.9290       4.965729    
  2.5991100E-04  2.7323700E-04   391.8420       5.529980    
  2.7323700E-04  2.8015400E-04   293.9428       8.373106    
  2.8015400E-04  2.8724599E-04   299.1487       8.807571    
  2.8724599E-04  2.9451799E-04   279.2666       9.018878    
  2.9451799E-04  3.0197401E-04   283.4228       7.050487    
  3.0197401E-04  3.0961799E-04   272.9167       8.853768    
  3.0961799E-04  3.1745600E-04   269.9807       7.988262    
  3.1745600E-04  3.3373301E-04   259.5912       5.447301    
  3.3373301E-04  3.5084400E-04   265.1985       5.502682    
  3.5084400E-04  3.6883200E-04   236.1454       6.138838    
  3.6883200E-04  3.8774201E-04   209.0828       5.723938    
  3.8774201E-04  4.0762199E-04   214.4521       6.282424    
  4.0762199E-04  4.2852099E-04   177.2125       5.231331    
  4.2852099E-04  4.5049199E-04   161.1130       6.312056    
  4.5049199E-04  4.7358900E-04   147.5893       6.768413    
  4.7358900E-04  4.9787102E-04   145.9213       6.194668    
  4.9787102E-04  5.1047403E-04   130.3932       10.93079    
  5.1047403E-04  5.2339700E-04   145.3777       9.452839    
  5.2339700E-04  5.3664698E-04   106.7444       9.681909    
  5.3664698E-04  5.5023201E-04   101.9611       8.496858    
  5.5023201E-04  5.7844300E-04   116.3629       6.912846    
  5.7844300E-04  6.0810102E-04   100.9406       7.645568    
  6.0810102E-04  6.3927902E-04   99.38615       6.517752    
  6.3927902E-04  6.7205500E-04   87.54285       7.036189    
  6.7205500E-04  7.0651202E-04   88.91032       6.931096    
  7.0651202E-04  7.4273598E-04   69.68518       5.833845    
  7.4273598E-04  7.8081700E-04   57.90659       7.183221    
  7.8081700E-04  8.2085002E-04   51.72888       7.669093    
  8.2085002E-04  8.6293602E-04   45.17408       8.272962    
  8.6293602E-04  9.0717903E-04   43.84141       7.158761    
  9.0717903E-04  9.5369201E-04   43.25292       6.951547    
  9.5369201E-04  9.6163998E-04   38.93724       17.45164    
  9.6163998E-04  9.7783399E-04   43.79122       13.07092    
  9.7783399E-04  1.0025901E-03   37.77944       10.57424    
  1.0025901E-03  1.0539900E-03   35.74870       7.452745    
  1.0539900E-03  1.1080300E-03   32.87803       6.832987    
  1.1080300E-03  1.1648400E-03   30.80226       6.968135    
  1.1648400E-03  1.1943300E-03   38.05806       8.936635    
  1.1943300E-03  1.2245600E-03   27.65611       10.54624    
  1.2245600E-03  1.2873500E-03   25.68601       8.486258    
  1.2873500E-03  1.3533500E-03   25.70331       7.030116    
  1.3533500E-03  1.4227401E-03   27.87077       7.752700    
  1.4227401E-03  1.4956900E-03   24.94311       7.553140    
  1.4956900E-03  1.5335500E-03   25.97929       10.66671    
  1.5335500E-03  1.5723699E-03   26.55432       9.972936    
  1.5723699E-03  1.6121800E-03   21.48665       11.00652    
  1.6121800E-03  1.6529900E-03   18.92154       12.91417    
  1.6529900E-03  1.7377400E-03   22.96228       6.980941    
  1.7377400E-03  1.8268300E-03   19.96619       8.432491    
  1.8268300E-03  1.8730800E-03   19.96860       10.76011    
  1.8730800E-03  1.9205000E-03   23.00017       10.47746    
  1.9205000E-03  1.9691200E-03   17.40175       11.10794    
  1.9691200E-03  2.0189700E-03   20.76255       10.55296    
  2.0189700E-03  2.1224800E-03   18.35065       7.414618    
  2.1224800E-03  2.2313001E-03   15.74426       7.232339    
  2.2313001E-03  2.2688799E-03   17.81485       12.46095    
  2.2688799E-03  2.3068599E-03   17.56061       13.19278    
  2.3068599E-03  2.3457000E-03   21.11706       11.93687    
  2.3457000E-03  2.3652499E-03   11.16248       21.21792    
  2.3652499E-03  2.3852000E-03   14.45016       19.77703    
  2.3852000E-03  2.4251300E-03   17.48337       13.92309    
  2.4251300E-03  2.4659701E-03   16.88706       13.98166    
  2.4659701E-03  2.5923999E-03   11.46748       8.149948    
  2.5923999E-03  2.7253199E-03   14.79385       8.482453    
  2.7253199E-03  2.8650500E-03   12.79275       7.551356    
  2.8650500E-03  3.0119400E-03   10.83802       9.160646    
  3.0119400E-03  3.0881900E-03   11.33296       12.71624    
  3.0881900E-03  3.1663701E-03   8.972945       13.52658    
  3.1663701E-03  3.2465300E-03   11.37803       11.06646    
  3.2465300E-03  3.3287101E-03   10.78663       12.75510    
  3.3287101E-03  3.4993801E-03   9.013244       10.02925    
  3.4993801E-03  3.6787901E-03   8.833127       7.476238    
  3.6787901E-03  3.8674099E-03   7.772635       9.562654    
  3.8674099E-03  4.0656999E-03   7.548227       8.693393    
  4.0656999E-03  4.2741499E-03   7.809841       9.473798    
  4.2741499E-03  4.4932901E-03   7.506112       8.158459    
  4.4932901E-03  4.6070400E-03   6.427450       11.93552    
  4.6070400E-03  4.7236700E-03   6.136707       14.29970    
  4.7236700E-03  4.8432499E-03   7.047225       11.65606    
  4.8432499E-03  4.9658502E-03   6.338547       14.63296    
  4.9658502E-03  5.2204598E-03   5.493300       8.712306    
  5.2204598E-03  5.4881200E-03   5.692842       9.364792    
  5.4881200E-03  5.7695000E-03   4.990613       8.399681    
  5.7695000E-03  5.9155500E-03   3.872381       13.86767    
  5.9155500E-03  6.0653100E-03   4.660778       12.98199    
  6.0653100E-03  6.2188501E-03   4.913071       13.43847    
  6.2188501E-03  6.3762800E-03   4.041738       15.32372    
  6.3762800E-03  6.5377001E-03   4.789678       12.65586    
  6.5377001E-03  6.5923799E-03   4.605903       21.89676    
  6.5923799E-03  6.6475999E-03   3.849319       21.52633    
  6.6475999E-03  6.7031998E-03   3.316252       23.43871    
  6.7031998E-03  6.8728901E-03   4.133831       13.37382    
  6.8728901E-03  7.0468802E-03   3.726688       13.71651    
  7.0468802E-03  7.2252699E-03   4.370721       12.71920    
  7.2252699E-03  7.4081798E-03   4.306072       13.11171    
  7.4081798E-03  7.5957198E-03   2.615381       16.26976    
  7.5957198E-03  7.7880099E-03   3.042904       13.51986    
  7.7880099E-03  7.9851598E-03   3.410809       15.04530    
  7.9851598E-03  8.1873098E-03   3.521020       12.70033    
  8.1873098E-03  8.3945701E-03   2.966927       15.00449    
  8.3945701E-03  8.6070802E-03   3.584739       12.57090    
  8.6070802E-03  8.8249696E-03   2.500159       15.10707    
  8.8249696E-03  9.0483697E-03   3.136125       14.55585    
  9.0483697E-03  9.2774397E-03   3.113028       14.51271    
  9.2774397E-03  9.5122904E-03   2.417806       14.91232    
  9.5122904E-03  9.7530996E-03   2.246596       16.72658    
  9.7530996E-03  9.9999998E-03   2.386773       16.40745    
  9.9999998E-03  1.0253200E-02   2.079165       15.58962    
  1.0253200E-02  1.0512700E-02   2.211681       14.83089    
  1.0512700E-02  1.0778800E-02   2.618063       14.66934    
  1.0778800E-02  1.1051700E-02   2.450094       13.81002    
  1.1051700E-02  1.1331500E-02   2.597522       14.18662    
  1.1331500E-02  1.1618300E-02   2.329207       14.55007    
  1.1618300E-02  1.1912500E-02   2.023323       15.27689    
  1.1912500E-02  1.2214000E-02   1.996389       14.37718    
  1.2214000E-02  1.2523200E-02   1.817029       13.53671    
  1.2523200E-02  1.2840200E-02   2.251923       12.82501    
  1.2840200E-02  1.3165300E-02   1.607668       14.12576    
  1.3165300E-02  1.3498600E-02   1.923887       17.18925    
  1.3498600E-02  1.3840300E-02   1.822095       15.53048    
  1.3840300E-02  1.4190700E-02   1.601719       15.87376    
  1.4190700E-02  1.4549900E-02   1.291213       17.33732    
  1.4549900E-02  1.4918300E-02   1.858722       16.40296    
  1.4918300E-02  1.5295900E-02   1.734900       15.71215    
  1.5295900E-02  1.5683100E-02   1.685254       13.41823    
  1.5683100E-02  1.6080100E-02   1.863658       13.04920    
  1.6080100E-02  1.6487200E-02   1.131220       16.79584    
  1.6487200E-02  1.6904600E-02   1.472089       15.20630    
  1.6904600E-02  1.7332500E-02   1.174292       16.87562    
  1.7332500E-02  1.7771300E-02   1.356210       14.45013    
  1.7771300E-02  1.8221200E-02  0.9271638       18.97631    
  1.8221200E-02  1.8682500E-02   1.174873       14.43099    
  1.8682500E-02  1.9155400E-02   1.221172       14.63220    
  1.9155400E-02  1.9640300E-02  0.8918068       18.34539    
  1.9640300E-02  2.0000000E-02  0.8838587       20.87863    
