 # Detector n:            1   HeIIcoll  
 # N. of energy intervals         260
  1.0000100E-14  2.0000000E-13  8.7041884E+09   51.87328    
  2.0000000E-13  2.9297300E-13  3.0485295E+10   54.12405    
  2.9297300E-13  4.2916701E-13  2.3858700E+10   49.80405    
  4.2916701E-13  6.2867300E-13  5.8553713E+10   20.29640    
  6.2867300E-13  9.2092198E-13  1.6825315E+11   20.72518    
  9.2092198E-13  1.3490300E-12  1.5567228E+11   8.949664    
  1.3490300E-12  1.9761499E-12  2.1088223E+11   10.92301    
  1.9761499E-12  2.8947901E-12  2.4433153E+11   5.262526    
  2.8947901E-12  4.2404799E-12  2.8178973E+11   5.491326    
  4.2404799E-12  6.2117499E-12  3.4290578E+11   2.849393    
  6.2117499E-12  9.0993801E-12  3.7063495E+11   2.993825    
  9.0993801E-12  1.3329400E-11  3.2020274E+11   3.562710    
  1.3329400E-11  1.9525799E-11  2.6580319E+11   2.733361    
  1.9525799E-11  2.8602700E-11  1.5994012E+11   2.774027    
  2.8602700E-11  4.1899099E-11  7.5197071E+10   1.240856    
  4.1899099E-11  6.1376598E-11  3.2017506E+10   3.577499    
  6.1376598E-11  8.9908601E-11  1.3322397E+10   6.488258    
  8.9908601E-11  1.3170399E-10  4.5345577E+09   8.945707    
  1.3170399E-10  1.9292901E-10  1.6447997E+09   7.659628    
  1.9292901E-10  2.8261499E-10  7.5105107E+08   5.070892    
  2.8261499E-10  4.1399401E-10  4.3420445E+08   4.700410    
  4.1399401E-10  5.3157900E-10  2.8537661E+08   3.336728    
  5.3157900E-10  6.2506200E-10  2.1554326E+08   5.579822    
  6.2506200E-10  6.8256001E-10  2.0990480E+08   7.628136    
  6.8256001E-10  8.3368101E-10  1.6339424E+08   4.709195    
  8.3368101E-10  8.7642499E-10  1.5077381E+08   15.11266    
  8.7642499E-10  1.1253500E-09  1.2751275E+08   3.428785    
  1.1253500E-09  1.4449800E-09  8.7503024E+07   8.591701    
  1.4449800E-09  1.8553900E-09  7.7121032E+07   4.582752    
  1.8553900E-09  2.3823701E-09  5.3416916E+07   5.468072    
  2.3823701E-09  3.0590199E-09  4.2772944E+07   2.789820    
  3.0590199E-09  3.9278598E-09  3.1338364E+07   5.344408    
  3.9278598E-09  5.0434799E-09  2.2521934E+07   4.885912    
  5.0434799E-09  6.4759500E-09  1.8128124E+07   4.539734    
  6.4759500E-09  8.3152898E-09  1.2178412E+07   3.985651    
  8.3152898E-09  1.0677000E-08  1.0700698E+07   3.396411    
  1.0677000E-08  1.3709600E-08   8333914.       5.781891    
  1.3709600E-08  1.7603501E-08   5789626.       3.531826    
  1.7603501E-08  2.2603301E-08   4971356.       4.919506    
  2.2603301E-08  2.9023200E-08   3457384.       11.37252    
  2.9023200E-08  3.7266499E-08   2573793.       5.506047    
  3.7266499E-08  4.7851199E-08   1898668.       10.21605    
  4.7851199E-08  6.1442101E-08   1494196.       8.659681    
  6.1442101E-08  7.8893301E-08   1127585.       6.836077    
  7.8893301E-08  1.0130100E-07   753177.2       2.383637    
  1.0130100E-07  1.3007300E-07   601191.2       5.963936    
  1.3007300E-07  1.6701701E-07   487171.8       9.602307    
  1.6701701E-07  2.1445400E-07   385321.0       3.975576    
  2.1445400E-07  2.7536399E-07   295498.5       2.796869    
  2.7536399E-07  3.5357499E-07   205061.2       3.592129    
  3.5357499E-07  4.5399901E-07   148548.4       7.981221    
  4.5399901E-07  5.8294700E-07   100481.7       6.388144    
  5.8294700E-07  7.4851800E-07   77834.56       4.067019    
  7.4851800E-07  9.6111603E-07   53041.33       8.688255    
  9.6111603E-07  1.2341000E-06   45414.26       8.062815    
  1.2341000E-06  1.3638900E-06   27523.16       3.754616    
  1.3638900E-06  1.5073300E-06   39065.18       9.789451    
  1.5073300E-06  1.5846100E-06   34442.37       23.34059    
  1.5846100E-06  1.6658601E-06   41380.41       6.804139    
  1.6658601E-06  1.8410600E-06   24787.96       13.55862    
  1.8410600E-06  2.0346799E-06   22791.88       13.56191    
  2.0346799E-06  2.2486699E-06   18658.54       10.86209    
  2.2486699E-06  2.4851699E-06   21621.93       17.38161    
  2.4851699E-06  2.6125899E-06   12644.43       21.73913    
  2.6125899E-06  2.7465401E-06   22487.18       10.99027    
  2.7465401E-06  2.8634900E-06   11979.67       8.164967    
  2.8634900E-06  3.0353899E-06   9372.884       19.28135    
  3.0353899E-06  3.3546301E-06   14921.73       13.37077    
  3.3546301E-06  3.7074401E-06   12708.04       8.462540    
  3.7074401E-06  4.0973500E-06   7546.241       14.80536    
  4.0973500E-06  4.3074201E-06   7670.460       21.73913    
  4.3074201E-06  4.5282700E-06   7613.379       9.622504    
  4.5282700E-06  5.0045101E-06   7208.511       13.48587    
  5.0045101E-06  5.5308401E-06   5590.858       9.912695    
  5.5308401E-06  6.2672698E-06   4757.051       14.78738    
  6.2672698E-06  7.1017398E-06   4030.394       14.02709    
  7.1017398E-06  8.0473301E-06   3556.958       3.402070    
  8.0473301E-06  9.1188203E-06   3662.382       10.51400    
  9.1188203E-06  1.0333000E-05   2654.983       8.325453    
  1.0333000E-05  1.1708800E-05   2241.310       8.298826    
  1.1708800E-05  1.3267800E-05   1888.126       11.98386    
  1.3267800E-05  1.5034400E-05   1666.313       11.33560    
  1.5034400E-05  1.7036200E-05   1505.643       5.852585    
  1.7036200E-05  1.9304500E-05   1143.417       10.23227    
  1.9304500E-05  2.1334799E-05   863.1784       41.50502    
  2.1334799E-05  2.1874899E-05   1168.109       11.11111    
  2.1874899E-05  2.3578599E-05   658.3104       20.41241    
  2.3578599E-05  2.4175501E-05   587.1738       38.29708    
  2.4175501E-05  2.4787500E-05   687.2147       19.24501    
  2.4787500E-05  2.6058400E-05   441.2305       28.86751    
  2.6058400E-05  2.8087899E-05   552.5945       14.43376    
  2.8087899E-05  3.1827800E-05   787.1223       14.80536    
  3.1827800E-05  3.4306700E-05   508.9132       21.27616    
  3.4306700E-05  3.5175199E-05   0.000000       0.000000    
  3.5175199E-05  3.6065601E-05   78.70966       99.00000    
  3.6065601E-05  4.0867701E-05   218.9024       27.48737    
  4.0867701E-05  4.6309200E-05   296.1126       29.59504    
  4.6309200E-05  5.2475199E-05   374.7543       31.05137    
  5.2475199E-05  5.6562199E-05   137.0039       45.64355    
  5.6562199E-05  5.9462200E-05   193.0252       50.00000    
  5.9462200E-05  6.2510902E-05   252.3813       37.48278    
  6.2510902E-05  6.7379500E-05   157.9427       31.05137    
  6.7379500E-05  7.6350902E-05   155.6729       21.60247    
  7.6350902E-05  8.6516899E-05   137.1493       8.164966    
  8.6516899E-05  9.8036500E-05   60.36414       34.64102    
  9.8036500E-05  1.1109000E-04   68.99675       44.18894    
  1.1109000E-04  1.1678600E-04   133.2864       27.27273    
  1.1678600E-04  1.2277300E-04   69.00587       33.33333    
  1.2277300E-04  1.2906799E-04   76.37991       48.79500    
  1.2906799E-04  1.3568600E-04   72.46489       48.79500    
  1.3568600E-04  1.4264201E-04   78.58022       20.41241    
  1.4264201E-04  1.4995600E-04   0.000000       0.000000    
  1.4995600E-04  1.5764400E-04   35.30555       57.73503    
  1.5764400E-04  1.6163501E-04   67.74059       40.82483    
  1.6163501E-04  1.6572700E-04   16.47213       99.00000    
  1.6572700E-04  1.6992200E-04   0.000000       0.000000    
  1.6992200E-04  1.7422400E-04   46.73991       63.82847    
  1.7422400E-04  1.8315599E-04   7.470867       99.00000    
  1.8315599E-04  1.9254700E-04   35.31276       38.29708    
  1.9254700E-04  2.0241900E-04   20.02543       33.33333    
  2.0241900E-04  2.1279699E-04   6.291594       99.00000    
  2.1279699E-04  2.2370800E-04   5.921066       99.00000    
  2.2370800E-04  2.3517800E-04   27.85318       60.00000    
  2.3517800E-04  2.4723500E-04   26.19495       50.33223    
  2.4723500E-04  2.5991100E-04   19.66422       57.73503    
  2.5991100E-04  2.7323700E-04   13.78247       33.33333    
  2.7323700E-04  2.8015400E-04   17.46037       99.00000    
  2.8015400E-04  2.8724599E-04   0.000000       0.000000    
  2.8724599E-04  2.9451799E-04   16.29779       57.73503    
  2.9451799E-04  3.0197401E-04   23.61103       63.82847    
  3.0197401E-04  3.0961799E-04   7.580568       99.00000    
  3.0961799E-04  3.1745600E-04   14.58278       57.73503    
  3.1745600E-04  3.3373301E-04   6.875768       99.00000    
  3.3373301E-04  3.5084400E-04   22.24721       27.35506    
  3.5084400E-04  3.6883200E-04   17.51677       19.24501    
  3.6883200E-04  3.8774201E-04   13.33886       38.29708    
  3.8774201E-04  4.0762199E-04   9.737453       57.73503    
  4.0762199E-04  4.2852099E-04   10.99302       38.29708    
  4.2852099E-04  4.5049199E-04   9.904595       50.33223    
  4.5049199E-04  4.7358900E-04   3.538710       57.73503    
  4.7358900E-04  4.9787102E-04   7.846920       38.29708    
  4.9787102E-04  5.1047403E-04   2.861877       99.00000    
  5.1047403E-04  5.2339700E-04   8.015279       63.82847    
  5.2339700E-04  5.3664698E-04   9.983747       40.82483    
  5.3664698E-04  5.5023201E-04   2.333518       99.00000    
  5.5023201E-04  5.7844300E-04   6.262110       57.73503    
  5.7844300E-04  6.0810102E-04   8.069362       45.81229    
  6.0810102E-04  6.3927902E-04   9.927269       26.27423    
  6.3927902E-04  6.7205500E-04   6.440176       52.91503    
  6.7205500E-04  7.0651202E-04   1.617262       33.33333    
  7.0651202E-04  7.4273598E-04   4.484353       25.81989    
  7.4273598E-04  7.8081700E-04   3.717575       38.29708    
  7.8081700E-04  8.2085002E-04   2.771449       42.06599    
  8.2085002E-04  8.6293602E-04   2.560569       25.81989    
  8.6293602E-04  9.0717903E-04   3.866567       33.33333    
  9.0717903E-04  9.5369201E-04   1.463201       40.82483    
  9.5369201E-04  9.6163998E-04   1.012160       99.00000    
  9.6163998E-04  9.7783399E-04   2.430912       60.00000    
  9.7783399E-04  1.0025901E-03   1.232036       99.00000    
  1.0025901E-03  1.0539900E-03  0.4253240       63.82847    
  1.0539900E-03  1.1080300E-03   1.819937       27.35506    
  1.1080300E-03  1.1648400E-03   1.471000       13.60828    
  1.1648400E-03  1.1943300E-03   1.430405       63.82847    
  1.1943300E-03  1.2245600E-03   1.179022       38.29708    
  1.2245600E-03  1.2873500E-03   1.052969       21.27616    
  1.2873500E-03  1.3533500E-03  0.8210711       27.35506    
  1.3533500E-03  1.4227401E-03   2.137981       19.24501    
  1.4227401E-03  1.4956900E-03   2.056800       20.09206    
  1.4956900E-03  1.5335500E-03   1.475453       43.03315    
  1.5335500E-03  1.5723699E-03  0.9943223       40.82483    
  1.5723699E-03  1.6121800E-03  0.7536064       63.82847    
  1.6121800E-03  1.6529900E-03  0.5077110       57.73503    
  1.6529900E-03  1.7377400E-03  0.9012290       67.51165    
  1.7377400E-03  1.8268300E-03   1.309678       20.00000    
  1.8268300E-03  1.8730800E-03   0.000000       0.000000    
  1.8730800E-03  1.9205000E-03   1.065365       0.000000    
  1.9205000E-03  1.9691200E-03   1.070656       40.82483    
  1.9691200E-03  2.0189700E-03  0.5374707       57.73503    
  2.0189700E-03  2.1224800E-03  0.4046914       33.33333    
  2.1224800E-03  2.2313001E-03  0.6759009       38.29708    
  2.2313001E-03  2.2688799E-03   0.000000       0.000000    
  2.2688799E-03  2.3068599E-03  0.4065740       99.00000    
  2.3068599E-03  2.3457000E-03   1.211038       33.33333    
  2.3457000E-03  2.3652499E-03   0.000000       0.000000    
  2.3652499E-03  2.3852000E-03   0.000000       0.000000    
  2.3852000E-03  2.4251300E-03  0.4043812       99.00000    
  2.4251300E-03  2.4659701E-03  0.4009719       99.00000    
  2.4659701E-03  2.5923999E-03  0.6652594       20.00000    
  2.5923999E-03  2.7253199E-03  0.1314501       99.00000    
  2.7253199E-03  2.8650500E-03  0.5179609       40.82483    
  2.8650500E-03  3.0119400E-03  0.5088515       40.82483    
  3.0119400E-03  3.0881900E-03  0.7519528       63.82847    
  3.0881900E-03  3.1663701E-03   0.000000       0.000000    
  3.1663701E-03  3.2465300E-03  0.2452659       99.00000    
  3.2465300E-03  3.3287101E-03  0.2424647       99.00000    
  3.3287101E-03  3.4993801E-03  0.5951247       20.00000    
  3.4993801E-03  3.6787901E-03  0.2320926       57.73503    
  3.6787901E-03  3.8674099E-03  0.4520698       70.71068    
  3.8674099E-03  4.0656999E-03  0.4399902       40.82483    
  4.0656999E-03  4.2741499E-03  0.2140489       57.73503    
  4.2741499E-03  4.4932901E-03  0.5206170       75.71878    
  4.4932901E-03  4.6070400E-03  0.8161770       70.71068    
  4.6070400E-03  4.7236700E-03  0.4025981       57.73503    
  4.7236700E-03  4.8432499E-03  0.1986309       99.00000    
  4.8432499E-03  4.9658502E-03  0.5880971       33.33333    
  4.9658502E-03  5.2204598E-03  0.1922280       57.73503    
  5.2204598E-03  5.4881200E-03  0.1874541       57.73503    
  5.4881200E-03  5.7695000E-03  0.3659514       0.000000    
  5.7695000E-03  5.9155500E-03  0.3596603       57.73503    
  5.9155500E-03  6.0653100E-03  0.3555983       57.73503    
  6.0653100E-03  6.2188501E-03  0.1758614       99.00000    
  6.2188501E-03  6.3762800E-03   0.000000       0.000000    
  6.3762800E-03  6.5377001E-03  0.3443633       57.73503    
  6.5377001E-03  6.5923799E-03   0.000000       0.000000    
  6.5923799E-03  6.6475999E-03   0.000000       0.000000    
  6.6475999E-03  6.7031998E-03  0.5099331       99.00000    
  6.7031998E-03  6.8728901E-03  0.1687838       99.00000    
  6.8728901E-03  7.0468802E-03  0.3343577       57.73503    
  7.0468802E-03  7.2252699E-03  0.1656470       99.00000    
  7.2252699E-03  7.4081798E-03  0.1641629       99.00000    
  7.4081798E-03  7.5957198E-03  0.1627477       99.00000    
  7.5957198E-03  7.7880099E-03  0.1613862       99.00000    
  7.7880099E-03  7.9851598E-03  0.3201978       57.73503    
  7.9851598E-03  8.1873098E-03  0.4765355       63.82847    
  8.1873098E-03  8.3945701E-03  0.4729843       63.82847    
  8.3945701E-03  8.6070802E-03  0.1565272       99.00000    
  8.6070802E-03  8.8249696E-03   0.000000       0.000000    
  8.8249696E-03  9.0483697E-03  0.1544228       99.00000    
  9.0483697E-03  9.2774397E-03  0.4602827       63.82847    
  9.2774397E-03  9.5122904E-03  0.1525145       99.00000    
  9.5122904E-03  9.7530996E-03  0.3032400       57.73503    
  9.7530996E-03  9.9999998E-03  0.1507792       99.00000    
  9.9999998E-03  1.0253200E-02  0.1499567       99.00000    
  1.0253200E-02  1.0512700E-02  0.1492796       99.00000    
  1.0512700E-02  1.0778800E-02  0.1485644       99.00000    
  1.0778800E-02  1.1051700E-02  0.1478638       99.00000    
  1.1051700E-02  1.1331500E-02  0.1472571       99.00000    
  1.1331500E-02  1.1618300E-02   0.000000       0.000000    
  1.1618300E-02  1.1912500E-02  0.2922130       57.73503    
  1.1912500E-02  1.2214000E-02  0.4370700       33.33333    
  1.2214000E-02  1.2523200E-02  0.2903849       57.73503    
  1.2523200E-02  1.2840200E-02  0.1447735       99.00000    
  1.2840200E-02  1.3165300E-02   0.000000       0.000000    
  1.3165300E-02  1.3498600E-02   0.000000       0.000000    
  1.3498600E-02  1.3840300E-02  0.1436973       99.00000    
  1.3840300E-02  1.4190700E-02   0.000000       0.000000    
  1.4190700E-02  1.4549900E-02   0.000000       0.000000    
  1.4549900E-02  1.4918300E-02  0.2856643       57.73503    
  1.4918300E-02  1.5295900E-02   0.000000       0.000000    
  1.5295900E-02  1.5683100E-02  0.1424095       99.00000    
  1.5683100E-02  1.6080100E-02   0.000000       0.000000    
  1.6080100E-02  1.6487200E-02  0.1419842       99.00000    
  1.6487200E-02  1.6904600E-02   0.000000       0.000000    
  1.6904600E-02  1.7332500E-02  0.2832126       99.00000    
  1.7332500E-02  1.7771300E-02   0.000000       0.000000    
  1.7771300E-02  1.8221200E-02  0.2822823       99.00000    
  1.8221200E-02  1.8682500E-02   0.000000       0.000000    
  1.8682500E-02  1.9155400E-02   0.000000       0.000000    
  1.9155400E-02  1.9640300E-02  0.1402762       99.00000    
  1.9640300E-02  2.0000000E-02   0.000000       0.000000    
