 # Detector n:  1  HeIInflux 
 # N. of energy intervals 260
  1.0000100E-14  2.0000000E-13  8.1177321E+10   17.26323    
  2.0000000E-13  2.9297300E-13  1.8679516E+11   12.45831    
  2.9297300E-13  4.2916701E-13  2.8302754E+11   7.782184    
  4.2916701E-13  6.2867300E-13  4.0325956E+11   4.335695    
  6.2867300E-13  9.2092198E-13  5.1868618E+11   4.703295    
  9.2092198E-13  1.3490300E-12  7.1680367E+11   2.692011    
  1.3490300E-12  1.9761499E-12  9.4861027E+11   1.899285    
  1.9761499E-12  2.8947901E-12  1.1764977E+12   2.288051    
  2.8947901E-12  4.2404799E-12  1.4437370E+12   1.009980    
  4.2404799E-12  6.2117499E-12  1.6370899E+12   1.584025    
  6.2117499E-12  9.0993801E-12  1.6519260E+12  0.6913103    
  9.0993801E-12  1.3329400E-11  1.4883007E+12  0.9043634    
  1.3329400E-11  1.9525799E-11  1.1172402E+12  0.8620400    
  1.9525799E-11  2.8602700E-11  6.6884062E+11  0.9474097    
  2.8602700E-11  4.1899099E-11  3.0941010E+11  0.7301471    
  4.1899099E-11  6.1376598E-11  1.2422305E+11  0.8615881    
  6.1376598E-11  8.9908601E-11  5.3281133E+10   1.372190    
  8.9908601E-11  1.3170399E-10  2.6693753E+10  0.9501837    
  1.3170399E-10  1.9292901E-10  1.4936134E+10   1.564330    
  1.9292901E-10  2.8261499E-10  9.1155139E+09  0.5868850    
  2.8261499E-10  4.1399401E-10  5.9368125E+09  0.6671643    
  4.1399401E-10  5.3157900E-10  4.3265229E+09  0.9867298    
  5.3157900E-10  6.2506200E-10  3.4942011E+09   1.078663    
  6.2506200E-10  6.8256001E-10  3.1056530E+09   1.800383    
  6.8256001E-10  8.3368101E-10  2.6785964E+09   1.040741    
  8.3368101E-10  8.7642499E-10  2.3690294E+09   1.267425    
  8.7642499E-10  1.1253500E-09  2.0008608E+09  0.7343953    
  1.1253500E-09  1.4449800E-09  1.5531521E+09  0.9863551    
  1.4449800E-09  1.8553900E-09  1.2188433E+09  0.6147146    
  1.8553900E-09  2.3823701E-09  9.3925370E+08  0.6382576    
  2.3823701E-09  3.0590199E-09  7.3522784E+08  0.4834153    
  3.0590199E-09  3.9278598E-09  5.6526662E+08  0.6720430    
  3.9278598E-09  5.0434799E-09  4.4119296E+08  0.5772538    
  5.0434799E-09  6.4759500E-09  3.4353584E+08  0.7351542    
  6.4759500E-09  8.3152898E-09  2.6913674E+08  0.5952206    
  8.3152898E-09  1.0677000E-08  2.1192059E+08  0.6021986    
  1.0677000E-08  1.3709600E-08  1.6459837E+08  0.8732311    
  1.3709600E-08  1.7603501E-08  1.2626142E+08  0.5946533    
  1.7603501E-08  2.2603301E-08  9.9702544E+07  0.5373386    
  2.2603301E-08  2.9023200E-08  7.7448048E+07  0.6868550    
  2.9023200E-08  3.7266499E-08  6.0044508E+07  0.5261597    
  3.7266499E-08  4.7851199E-08  4.6882212E+07  0.5240604    
  4.7851199E-08  6.1442101E-08  3.6541556E+07  0.5747105    
  6.1442101E-08  7.8893301E-08  2.8393910E+07  0.7853705    
  7.8893301E-08  1.0130100E-07  2.2061564E+07  0.6391281    
  1.0130100E-07  1.3007300E-07  1.7282968E+07  0.7150962    
  1.3007300E-07  1.6701701E-07  1.3303983E+07  0.8923993    
  1.6701701E-07  2.1445400E-07  1.0268000E+07  0.6763249    
  2.1445400E-07  2.7536399E-07   8021881.      0.6665875    
  2.7536399E-07  3.5357499E-07   6152574.      0.6388690    
  3.5357499E-07  4.5399901E-07   4810989.      0.8338895    
  4.5399901E-07  5.8294700E-07   3669096.      0.8245861    
  5.8294700E-07  7.4851800E-07   2840381.      0.9301056    
  7.4851800E-07  9.6111603E-07   2220302.      0.7254220    
  9.6111603E-07  1.2341000E-06   1700071.      0.8808891    
  1.2341000E-06  1.3638900E-06   1418455.       1.122088    
  1.3638900E-06  1.5073300E-06   1265631.       1.406918    
  1.5073300E-06  1.5846100E-06   1169931.       1.684930    
  1.5846100E-06  1.6658601E-06   1090401.       1.174936    
  1.6658601E-06  1.8410600E-06   1033109.       1.111004    
  1.8410600E-06  2.0346799E-06   907796.2       1.406457    
  2.0346799E-06  2.2486699E-06   821604.6       1.143837    
  2.2486699E-06  2.4851699E-06   755908.4       1.013814    
  2.4851699E-06  2.6125899E-06   688113.6       1.747024    
  2.6125899E-06  2.7465401E-06   658242.9       1.091602    
  2.7465401E-06  2.8634900E-06   635150.8       1.800436    
  2.8634900E-06  3.0353899E-06   592336.8       1.311491    
  3.0353899E-06  3.3546301E-06   534774.9       1.277997    
  3.3546301E-06  3.7074401E-06   487532.8       1.037042    
  3.7074401E-06  4.0973500E-06   446779.2       1.477905    
  4.0973500E-06  4.3074201E-06   402059.7       1.709862    
  4.3074201E-06  4.5282700E-06   390359.8       1.704886    
  4.5282700E-06  5.0045101E-06   355067.3      0.9494308    
  5.0045101E-06  5.5308401E-06   344793.3       1.162966    
  5.5308401E-06  6.2672698E-06   243756.3       1.199377    
  6.2672698E-06  7.1017398E-06   240896.7       1.190802    
  7.1017398E-06  8.0473301E-06   216184.5       1.207492    
  8.0473301E-06  9.1188203E-06   184302.4       1.307426    
  9.1188203E-06  1.0333000E-05   160348.2       1.084815    
  1.0333000E-05  1.1708800E-05   143024.8      0.9149740    
  1.1708800E-05  1.3267800E-05   121292.2       1.400951    
  1.3267800E-05  1.5034400E-05   106149.2       1.102461    
  1.5034400E-05  1.7036200E-05   90325.59       1.145520    
  1.7036200E-05  1.9304500E-05   79126.90       1.275117    
  1.9304500E-05  2.1334799E-05   69355.51      0.9822437    
  2.1334799E-05  2.1874899E-05   63073.95       2.904485    
  2.1874899E-05  2.3578599E-05   62015.10       1.405913    
  2.3578599E-05  2.4175501E-05   58387.66       2.378792    
  2.4175501E-05  2.4787500E-05   58440.45       1.805883    
  2.4787500E-05  2.6058400E-05   53690.57       1.561288    
  2.6058400E-05  2.8087899E-05   52874.33       1.679348    
  2.8087899E-05  3.1827800E-05   55151.14       1.082318    
  3.1827800E-05  3.4306700E-05   36303.37       1.626198    
  3.4306700E-05  3.5175199E-05   20375.72       3.894346    
  3.5175199E-05  3.6065601E-05   17949.11       3.883743    
  3.6065601E-05  4.0867701E-05   24606.55       1.505287    
  4.0867701E-05  4.6309200E-05   26836.28      0.9827004    
  4.6309200E-05  5.2475199E-05   23777.70       1.233034    
  5.2475199E-05  5.6562199E-05   21639.33       1.494363    
  5.6562199E-05  5.9462200E-05   19542.04       1.660598    
  5.9462200E-05  6.2510902E-05   18560.34       2.072060    
  6.2510902E-05  6.7379500E-05   17775.84       1.838831    
  6.7379500E-05  7.6350902E-05   17367.21       1.128447    
  7.6350902E-05  8.6516899E-05   12933.73       1.626549    
  8.6516899E-05  9.8036500E-05   7726.462       2.040778    
  9.8036500E-05  1.1109000E-04   8817.278       1.452672    
  1.1109000E-04  1.1678600E-04   8365.451       2.516773    
  1.1678600E-04  1.2277300E-04   6064.666       2.632471    
  1.2277300E-04  1.2906799E-04   8630.335       1.814416    
  1.2906799E-04  1.3568600E-04   8628.805       2.229811    
  1.3568600E-04  1.4264201E-04   6596.301       1.860080    
  1.4264201E-04  1.4995600E-04   4914.002       3.028527    
  1.4995600E-04  1.5764400E-04   4850.335       2.430391    
  1.5764400E-04  1.6163501E-04   3685.688       4.894520    
  1.6163501E-04  1.6572700E-04   4834.322       2.788118    
  1.6572700E-04  1.6992200E-04   4736.164       3.156559    
  1.6992200E-04  1.7422400E-04   5026.772       3.552886    
  1.7422400E-04  1.8315599E-04   4876.803       2.361570    
  1.8315599E-04  1.9254700E-04   4789.008       2.832032    
  1.9254700E-04  2.0241900E-04   4336.947       2.300216    
  2.0241900E-04  2.1279699E-04   3445.049       2.397699    
  2.1279699E-04  2.2370800E-04   3340.091       1.905994    
  2.2370800E-04  2.3517800E-04   3392.757       2.177143    
  2.3517800E-04  2.4723500E-04   3269.683       1.204286    
  2.4723500E-04  2.5991100E-04   3311.721       1.947086    
  2.5991100E-04  2.7323700E-04   3176.224       2.240673    
  2.7323700E-04  2.8015400E-04   2790.262       3.641265    
  2.8015400E-04  2.8724599E-04   2286.378       3.671319    
  2.8724599E-04  2.9451799E-04   2284.439       5.086732    
  2.9451799E-04  3.0197401E-04   2452.885       4.299604    
  3.0197401E-04  3.0961799E-04   2366.669       3.170136    
  3.0961799E-04  3.1745600E-04   2102.223       4.113679    
  3.1745600E-04  3.3373301E-04   2097.376       2.987123    
  3.3373301E-04  3.5084400E-04   2182.831       2.854220    
  3.5084400E-04  3.6883200E-04   1751.562       2.853867    
  3.6883200E-04  3.8774201E-04   1659.743       2.728486    
  3.8774201E-04  4.0762199E-04   1686.559       2.316898    
  4.0762199E-04  4.2852099E-04   1408.764       3.121245    
  4.2852099E-04  4.5049199E-04   1223.021       2.331428    
  4.5049199E-04  4.7358900E-04   1231.747       2.277437    
  4.7358900E-04  4.9787102E-04   1146.434       3.086559    
  4.9787102E-04  5.1047403E-04   1215.609       3.689022    
  5.1047403E-04  5.2339700E-04   1124.058       3.894221    
  5.2339700E-04  5.3664698E-04   898.8264       4.522587    
  5.3664698E-04  5.5023201E-04   913.7845       3.748328    
  5.5023201E-04  5.7844300E-04   911.3347       2.384019    
  5.7844300E-04  6.0810102E-04   800.9383       3.596400    
  6.0810102E-04  6.3927902E-04   738.0403       3.190036    
  6.3927902E-04  6.7205500E-04   599.7408       3.198894    
  6.7205500E-04  7.0651202E-04   626.0734       3.213578    
  7.0651202E-04  7.4273598E-04   497.8918       2.296338    
  7.4273598E-04  7.8081700E-04   455.2950       2.329253    
  7.8081700E-04  8.2085002E-04   354.8139       3.309516    
  8.2085002E-04  8.6293602E-04   327.1309       2.889046    
  8.6293602E-04  9.0717903E-04   309.6133       3.505157    
  9.0717903E-04  9.5369201E-04   276.0692       3.981120    
  9.5369201E-04  9.6163998E-04   234.6956       7.641270    
  9.6163998E-04  9.7783399E-04   213.8721       3.433532    
  9.7783399E-04  1.0025901E-03   242.4261       4.472095    
  1.0025901E-03  1.0539900E-03   203.7184       3.274193    
  1.0539900E-03  1.1080300E-03   207.0212       2.549349    
  1.1080300E-03  1.1648400E-03   178.5279       3.310847    
  1.1648400E-03  1.1943300E-03   168.2382       4.228358    
  1.1943300E-03  1.2245600E-03   175.1172       6.265254    
  1.2245600E-03  1.2873500E-03   154.7857       3.467466    
  1.2873500E-03  1.3533500E-03   159.2157       2.705341    
  1.3533500E-03  1.4227401E-03   150.0826       3.811674    
  1.4227401E-03  1.4956900E-03   141.6570       5.090826    
  1.4956900E-03  1.5335500E-03   142.6488       4.398890    
  1.5335500E-03  1.5723699E-03   130.8493       7.050596    
  1.5723699E-03  1.6121800E-03   147.0520       5.434230    
  1.6121800E-03  1.6529900E-03   140.1220       5.235880    
  1.6529900E-03  1.7377400E-03   136.7085       2.629582    
  1.7377400E-03  1.8268300E-03   110.3020       3.843683    
  1.8268300E-03  1.8730800E-03   114.5470       3.902390    
  1.8730800E-03  1.9205000E-03   110.5852       5.043578    
  1.9205000E-03  1.9691200E-03   110.5679       4.535393    
  1.9691200E-03  2.0189700E-03   111.2562       5.189107    
  2.0189700E-03  2.1224800E-03   102.7149       4.502072    
  2.1224800E-03  2.2313001E-03   94.60685       4.506250    
  2.2313001E-03  2.2688799E-03   82.49220       4.975015    
  2.2688799E-03  2.3068599E-03   86.42850       7.577989    
  2.3068599E-03  2.3457000E-03   90.14813       6.823605    
  2.3457000E-03  2.3652499E-03   70.90447       13.30199    
  2.3652499E-03  2.3852000E-03   79.18877       10.89319    
  2.3852000E-03  2.4251300E-03   86.84379       6.748905    
  2.4251300E-03  2.4659701E-03   84.75599       5.359878    
  2.4659701E-03  2.5923999E-03   73.51569       4.851490    
  2.5923999E-03  2.7253199E-03   62.02510       4.010824    
  2.7253199E-03  2.8650500E-03   51.81497       6.540434    
  2.8650500E-03  3.0119400E-03   49.71952       4.983360    
  3.0119400E-03  3.0881900E-03   49.06693       5.353257    
  3.0881900E-03  3.1663701E-03   45.35729       7.632755    
  3.1663701E-03  3.2465300E-03   47.55659       7.769636    
  3.2465300E-03  3.3287101E-03   44.30224       7.201505    
  3.3287101E-03  3.4993801E-03   35.62105       6.615935    
  3.4993801E-03  3.6787901E-03   34.83278       3.599243    
  3.6787901E-03  3.8674099E-03   33.33432       5.192924    
  3.8674099E-03  4.0656999E-03   31.01830       4.724055    
  4.0656999E-03  4.2741499E-03   31.50984       5.275119    
  4.2741499E-03  4.4932901E-03   27.52997       6.584493    
  4.4932901E-03  4.6070400E-03   26.21961       8.630976    
  4.6070400E-03  4.7236700E-03   25.47766       8.811937    
  4.7236700E-03  4.8432499E-03   26.22982       7.230978    
  4.8432499E-03  4.9658502E-03   24.36301       8.200202    
  4.9658502E-03  5.2204598E-03   22.95626       4.592165    
  5.2204598E-03  5.4881200E-03   21.77104       5.762913    
  5.4881200E-03  5.7695000E-03   19.78307       6.051544    
  5.7695000E-03  5.9155500E-03   19.91304       7.867775    
  5.9155500E-03  6.0653100E-03   17.99560       7.457096    
  6.0653100E-03  6.2188501E-03   16.64255       7.965127    
  6.2188501E-03  6.3762800E-03   18.28049       8.872627    
  6.3762800E-03  6.5377001E-03   17.12023       9.507565    
  6.5377001E-03  6.5923799E-03   18.11746       14.44135    
  6.5923799E-03  6.6475999E-03   19.35677       16.20396    
  6.6475999E-03  6.7031998E-03   11.16655       17.78151    
  6.7031998E-03  6.8728901E-03   15.26987       8.476347    
  6.8728901E-03  7.0468802E-03   16.23321       10.14819    
  7.0468802E-03  7.2252699E-03   15.84859       8.803035    
  7.2252699E-03  7.4081798E-03   14.46581       9.085720    
  7.4081798E-03  7.5957198E-03   11.07630       11.25124    
  7.5957198E-03  7.7880099E-03   9.416480       10.46955    
  7.7880099E-03  7.9851598E-03   10.97802       6.823787    
  7.9851598E-03  8.1873098E-03   11.96241       12.65112    
  8.1873098E-03  8.3945701E-03   10.92156       10.41200    
  8.3945701E-03  8.6070802E-03   10.59699       7.135943    
  8.6070802E-03  8.8249696E-03   10.62053       10.72134    
  8.8249696E-03  9.0483697E-03   11.69352       6.294861    
  9.0483697E-03  9.2774397E-03   10.31724       9.645624    
  9.2774397E-03  9.5122904E-03   11.78798       10.73884    
  9.5122904E-03  9.7530996E-03   7.715526       12.03963    
  9.7530996E-03  9.9999998E-03   9.494091       11.00912    
  9.9999998E-03  1.0253200E-02   8.102979       10.50301    
  1.0253200E-02  1.0512700E-02   8.562907       9.467535    
  1.0512700E-02  1.0778800E-02   7.866376       10.71172    
  1.0778800E-02  1.1051700E-02   7.148032       13.14658    
  1.1051700E-02  1.1331500E-02   6.100669       11.31407    
  1.1331500E-02  1.1618300E-02   6.026256       9.799094    
  1.1618300E-02  1.1912500E-02   6.641998       9.376070    
  1.1912500E-02  1.2214000E-02   6.514588       10.13829    
  1.2214000E-02  1.2523200E-02   5.975980       11.39029    
  1.2523200E-02  1.2840200E-02   5.897978       6.824595    
  1.2840200E-02  1.3165300E-02   5.126173       12.74029    
  1.3165300E-02  1.3498600E-02   5.328724       11.74121    
  1.3498600E-02  1.3840300E-02   5.743870       13.20953    
  1.3840300E-02  1.4190700E-02   6.099730       9.195770    
  1.4190700E-02  1.4549900E-02   4.331367       12.37473    
  1.4549900E-02  1.4918300E-02   4.645642       10.54078    
  1.4918300E-02  1.5295900E-02   4.396762       11.82503    
  1.5295900E-02  1.5683100E-02   5.220751       9.579215    
  1.5683100E-02  1.6080100E-02   4.565787       10.54190    
  1.6080100E-02  1.6487200E-02   4.485035       11.13546    
  1.6487200E-02  1.6904600E-02   4.408773       14.17816    
  1.6904600E-02  1.7332500E-02   4.236538       12.24374    
  1.7332500E-02  1.7771300E-02   3.854187       11.14249    
  1.7771300E-02  1.8221200E-02   3.522370       8.722149    
  1.8221200E-02  1.8682500E-02   3.453941       11.03815    
  1.8682500E-02  1.9155400E-02   3.376557       11.62303    
  1.9155400E-02  1.9640300E-02   2.610432       13.54023    
  1.9640300E-02  2.0000000E-02   2.918012       12.12386    
