 # Detector n:  1  HeIInflux 
 # N. of energy intervals 260
  1.0000100E-14  2.0000000E-13  1.2141031E+11   12.57121    
  2.0000000E-13  2.9297300E-13  2.3553986E+11   8.400899    
  2.9297300E-13  4.2916701E-13  3.8437031E+11   9.629560    
  4.2916701E-13  6.2867300E-13  4.8699756E+11   5.265340    
  6.2867300E-13  9.2092198E-13  7.1164979E+11   4.862849    
  9.2092198E-13  1.3490300E-12  9.3240793E+11   2.766105    
  1.3490300E-12  1.9761499E-12  1.2048648E+12   2.199102    
  1.9761499E-12  2.8947901E-12  1.6139792E+12   1.492644    
  2.8947901E-12  4.2404799E-12  1.9256677E+12   1.217481    
  4.2404799E-12  6.2117499E-12  2.0789414E+12  0.9969613    
  6.2117499E-12  9.0993801E-12  2.1542956E+12  0.9496228    
  9.0993801E-12  1.3329400E-11  1.8717248E+12  0.7881830    
  1.3329400E-11  1.9525799E-11  1.3107246E+12  0.5380570    
  1.9525799E-11  2.8602700E-11  7.0937477E+11  0.8650007    
  2.8602700E-11  4.1899099E-11  2.6470661E+11  0.9642188    
  4.1899099E-11  6.1376598E-11  7.3902195E+10   1.440088    
  6.1376598E-11  8.9908601E-11  2.2635002E+10   1.226340    
  8.9908601E-11  1.3170399E-10  1.1723063E+10  0.9115155    
  1.3170399E-10  1.9292901E-10  7.4913096E+09  0.9360803    
  1.9292901E-10  2.8261499E-10  5.0936044E+09  0.9210448    
  2.8261499E-10  4.1399401E-10  3.4362793E+09  0.7718948    
  4.1399401E-10  5.3157900E-10  2.5023460E+09  0.8888251    
  5.3157900E-10  6.2506200E-10  2.0710825E+09   1.021291    
  6.2506200E-10  6.8256001E-10  1.7542966E+09   1.497053    
  6.8256001E-10  8.3368101E-10  1.5623717E+09   1.157774    
  8.3368101E-10  8.7642499E-10  1.3895126E+09   1.922211    
  8.7642499E-10  1.1253500E-09  1.1857646E+09   1.114744    
  1.1253500E-09  1.4449800E-09  9.1228634E+08   1.005066    
  1.4449800E-09  1.8553900E-09  6.9933197E+08   1.047525    
  1.8553900E-09  2.3823701E-09  5.4798835E+08  0.6959473    
  2.3823701E-09  3.0590199E-09  4.3210909E+08  0.8867717    
  3.0590199E-09  3.9278598E-09  3.3866118E+08   1.255844    
  3.9278598E-09  5.0434799E-09  2.5693568E+08  0.8303068    
  5.0434799E-09  6.4759500E-09  2.0556342E+08   1.028458    
  6.4759500E-09  8.3152898E-09  1.5804010E+08  0.7301552    
  8.3152898E-09  1.0677000E-08  1.2375131E+08  0.7291584    
  1.0677000E-08  1.3709600E-08  9.6307176E+07  0.7782242    
  1.3709600E-08  1.7603501E-08  7.5967120E+07  0.7182035    
  1.7603501E-08  2.2603301E-08  5.9170968E+07  0.9403178    
  2.2603301E-08  2.9023200E-08  4.4804292E+07  0.9552804    
  2.9023200E-08  3.7266499E-08  3.4288388E+07  0.8554904    
  3.7266499E-08  4.7851199E-08  2.7348170E+07   1.046436    
  4.7851199E-08  6.1442101E-08  2.1209942E+07  0.8356791    
  6.1442101E-08  7.8893301E-08  1.6377316E+07  0.8775277    
  7.8893301E-08  1.0130100E-07  1.2854329E+07  0.7839521    
  1.0130100E-07  1.3007300E-07   9943757.      0.8272853    
  1.3007300E-07  1.6701701E-07   7672104.      0.9187418    
  1.6701701E-07  2.1445400E-07   5831019.      0.9508632    
  2.1445400E-07  2.7536399E-07   4560956.      0.8365391    
  2.7536399E-07  3.5357499E-07   3567958.      0.7419263    
  3.5357499E-07  4.5399901E-07   2763254.       1.206321    
  4.5399901E-07  5.8294700E-07   2091411.       1.041048    
  5.8294700E-07  7.4851800E-07   1641732.      0.9918433    
  7.4851800E-07  9.6111603E-07   1254261.       1.088335    
  9.6111603E-07  1.2341000E-06   966530.8      0.8149541    
  1.2341000E-06  1.3638900E-06   806785.6       1.639224    
  1.3638900E-06  1.5073300E-06   742181.8       1.336103    
  1.5073300E-06  1.5846100E-06   690684.1       2.300877    
  1.5846100E-06  1.6658601E-06   639629.4       2.273108    
  1.6658601E-06  1.8410600E-06   585545.1       1.408900    
  1.8410600E-06  2.0346799E-06   520736.7       1.689514    
  2.0346799E-06  2.2486699E-06   479279.9       1.517635    
  2.2486699E-06  2.4851699E-06   421025.2       1.224297    
  2.4851699E-06  2.6125899E-06   383681.9       2.055971    
  2.6125899E-06  2.7465401E-06   361940.9       1.958313    
  2.7465401E-06  2.8634900E-06   338741.1       2.028034    
  2.8634900E-06  3.0353899E-06   330016.9       2.058649    
  3.0353899E-06  3.3546301E-06   307022.7       1.646753    
  3.3546301E-06  3.7074401E-06   274591.8      0.9695526    
  3.7074401E-06  4.0973500E-06   248614.8       1.531555    
  4.0973500E-06  4.3074201E-06   233154.9       2.332664    
  4.3074201E-06  4.5282700E-06   206780.5       2.199406    
  4.5282700E-06  5.0045101E-06   200980.9       1.367897    
  5.0045101E-06  5.5308401E-06   188231.1       1.365439    
  5.5308401E-06  6.2672698E-06   141289.1       1.598843    
  6.2672698E-06  7.1017398E-06   136102.2       1.371198    
  7.1017398E-06  8.0473301E-06   121049.0       1.903706    
  8.0473301E-06  9.1188203E-06   102191.0       1.571216    
  9.1188203E-06  1.0333000E-05   89455.75       1.320873    
  1.0333000E-05  1.1708800E-05   78766.02       1.109405    
  1.1708800E-05  1.3267800E-05   67973.22       1.490575    
  1.3267800E-05  1.5034400E-05   57710.32       1.540084    
  1.5034400E-05  1.7036200E-05   52143.70       1.722996    
  1.7036200E-05  1.9304500E-05   43549.75       1.602326    
  1.9304500E-05  2.1334799E-05   38164.59       1.577588    
  2.1334799E-05  2.1874899E-05   36073.14       4.238868    
  2.1874899E-05  2.3578599E-05   33502.55       2.389405    
  2.3578599E-05  2.4175501E-05   31704.71       3.730746    
  2.4175501E-05  2.4787500E-05   29905.86       3.469139    
  2.4787500E-05  2.6058400E-05   30358.96       2.464586    
  2.6058400E-05  2.8087899E-05   28042.05       2.033543    
  2.8087899E-05  3.1827800E-05   30730.87       1.205307    
  3.1827800E-05  3.4306700E-05   21509.50       1.936673    
  3.4306700E-05  3.5175199E-05   11182.98       5.510183    
  3.5175199E-05  3.6065601E-05   9437.830       4.774044    
  3.6065601E-05  4.0867701E-05   14000.05       1.829030    
  4.0867701E-05  4.6309200E-05   14719.95       1.595138    
  4.6309200E-05  5.2475199E-05   13064.32       1.754211    
  5.2475199E-05  5.6562199E-05   11500.49       2.781507    
  5.6562199E-05  5.9462200E-05   10931.99       2.582503    
  5.9462200E-05  6.2510902E-05   10319.75       2.267705    
  6.2510902E-05  6.7379500E-05   9746.940       1.510398    
  6.7379500E-05  7.6350902E-05   9193.854       2.276697    
  7.6350902E-05  8.6516899E-05   7216.269       1.816076    
  8.6516899E-05  9.8036500E-05   4252.750       2.641383    
  9.8036500E-05  1.1109000E-04   5184.058       1.791399    
  1.1109000E-04  1.1678600E-04   4907.256       2.339470    
  1.1678600E-04  1.2277300E-04   3581.829       3.621127    
  1.2277300E-04  1.2906799E-04   4556.578       2.442745    
  1.2906799E-04  1.3568600E-04   4826.020       3.310694    
  1.3568600E-04  1.4264201E-04   3742.195       3.761554    
  1.4264201E-04  1.4995600E-04   2878.378       3.638977    
  1.4995600E-04  1.5764400E-04   2669.229       2.974590    
  1.5764400E-04  1.6163501E-04   2396.978       4.399152    
  1.6163501E-04  1.6572700E-04   2541.008       4.173561    
  1.6572700E-04  1.6992200E-04   2402.961       4.011293    
  1.6992200E-04  1.7422400E-04   2522.570       6.153143    
  1.7422400E-04  1.8315599E-04   2695.006       3.588159    
  1.8315599E-04  1.9254700E-04   2668.661       3.681775    
  1.9254700E-04  2.0241900E-04   2256.412       2.925996    
  2.0241900E-04  2.1279699E-04   1950.732       3.081670    
  2.1279699E-04  2.2370800E-04   1970.684       3.518215    
  2.2370800E-04  2.3517800E-04   1900.537       3.386665    
  2.3517800E-04  2.4723500E-04   1735.620       2.046360    
  2.4723500E-04  2.5991100E-04   1740.466       3.682224    
  2.5991100E-04  2.7323700E-04   1871.808       3.427026    
  2.7323700E-04  2.8015400E-04   1684.337       4.954068    
  2.8015400E-04  2.8724599E-04   1366.679       4.901415    
  2.8724599E-04  2.9451799E-04   1388.371       4.792563    
  2.9451799E-04  3.0197401E-04   1395.966       3.808958    
  3.0197401E-04  3.0961799E-04   1347.794       4.614289    
  3.0961799E-04  3.1745600E-04   1112.324       5.007259    
  3.1745600E-04  3.3373301E-04   1205.127       3.496027    
  3.3373301E-04  3.5084400E-04   1207.249       3.056011    
  3.5084400E-04  3.6883200E-04   1094.837       3.101151    
  3.6883200E-04  3.8774201E-04   1029.232       3.152590    
  3.8774201E-04  4.0762199E-04   921.9923       3.876338    
  4.0762199E-04  4.2852099E-04   772.7166       3.376349    
  4.2852099E-04  4.5049199E-04   723.6899       3.820983    
  4.5049199E-04  4.7358900E-04   681.4606       4.258943    
  4.7358900E-04  4.9787102E-04   701.1920       4.337744    
  4.9787102E-04  5.1047403E-04   707.7878       5.040286    
  5.1047403E-04  5.2339700E-04   671.6357       4.701579    
  5.2339700E-04  5.3664698E-04   541.1037       5.545150    
  5.3664698E-04  5.5023201E-04   552.5549       4.016185    
  5.5023201E-04  5.7844300E-04   500.1283       4.029887    
  5.7844300E-04  6.0810102E-04   461.3011       3.444901    
  6.0810102E-04  6.3927902E-04   445.3498       4.520308    
  6.3927902E-04  6.7205500E-04   370.0398       4.749508    
  6.7205500E-04  7.0651202E-04   384.7455       3.118294    
  7.0651202E-04  7.4273598E-04   323.0286       3.479959    
  7.4273598E-04  7.8081700E-04   292.8372       3.296067    
  7.8081700E-04  8.2085002E-04   232.7662       4.996397    
  8.2085002E-04  8.6293602E-04   211.7721       3.724868    
  8.6293602E-04  9.0717903E-04   189.6292       3.822187    
  9.0717903E-04  9.5369201E-04   163.9441       3.774440    
  9.5369201E-04  9.6163998E-04   137.1290       11.03429    
  9.6163998E-04  9.7783399E-04   141.5595       7.894658    
  9.7783399E-04  1.0025901E-03   141.4030       6.586689    
  1.0025901E-03  1.0539900E-03   134.0529       4.623998    
  1.0539900E-03  1.1080300E-03   120.8031       3.412588    
  1.1080300E-03  1.1648400E-03   129.3332       3.960889    
  1.1648400E-03  1.1943300E-03   105.5588       5.404083    
  1.1943300E-03  1.2245600E-03   115.6513       6.154284    
  1.2245600E-03  1.2873500E-03   111.5065       4.536471    
  1.2873500E-03  1.3533500E-03   114.9034       3.367334    
  1.3533500E-03  1.4227401E-03   110.1731       3.350062    
  1.4227401E-03  1.4956900E-03   104.6276       3.682932    
  1.4956900E-03  1.5335500E-03   107.1585       5.930399    
  1.5335500E-03  1.5723699E-03   99.75373       4.721178    
  1.5723699E-03  1.6121800E-03   99.34905       5.878045    
  1.6121800E-03  1.6529900E-03   101.3260       6.729781    
  1.6529900E-03  1.7377400E-03   97.27061       4.032293    
  1.7377400E-03  1.8268300E-03   91.05925       4.482917    
  1.8268300E-03  1.8730800E-03   88.84860       6.587827    
  1.8730800E-03  1.9205000E-03   90.41039       4.990358    
  1.9205000E-03  1.9691200E-03   73.54170       6.632765    
  1.9691200E-03  2.0189700E-03   76.70419       6.590960    
  2.0189700E-03  2.1224800E-03   83.63606       4.431428    
  2.1224800E-03  2.2313001E-03   71.88334       5.313086    
  2.2313001E-03  2.2688799E-03   68.01538       8.200779    
  2.2688799E-03  2.3068599E-03   63.64678       9.235597    
  2.3068599E-03  2.3457000E-03   70.36466       8.643671    
  2.3457000E-03  2.3652499E-03   56.72148       9.326557    
  2.3652499E-03  2.3852000E-03   69.41959       9.056759    
  2.3852000E-03  2.4251300E-03   59.68823       8.627403    
  2.4251300E-03  2.4659701E-03   68.87157       9.785302    
  2.4659701E-03  2.5923999E-03   56.38799       3.776158    
  2.5923999E-03  2.7253199E-03   52.51791       4.640574    
  2.7253199E-03  2.8650500E-03   44.00763       4.810987    
  2.8650500E-03  3.0119400E-03   42.20445       5.709486    
  3.0119400E-03  3.0881900E-03   42.51493       8.965174    
  3.0881900E-03  3.1663701E-03   40.69024       7.586843    
  3.1663701E-03  3.2465300E-03   36.77981       5.419053    
  3.2465300E-03  3.3287101E-03   32.64613       9.657092    
  3.3287101E-03  3.4993801E-03   31.12489       6.146900    
  3.4993801E-03  3.6787901E-03   28.71674       3.727155    
  3.6787901E-03  3.8674099E-03   29.77335       7.374803    
  3.8674099E-03  4.0656999E-03   28.44529       5.642940    
  4.0656999E-03  4.2741499E-03   28.37524       7.122685    
  4.2741499E-03  4.4932901E-03   26.33128       6.428685    
  4.4932901E-03  4.6070400E-03   26.64324       7.967825    
  4.6070400E-03  4.7236700E-03   25.91955       6.906914    
  4.7236700E-03  4.8432499E-03   24.18615       7.713912    
  4.8432499E-03  4.9658502E-03   20.93564       9.298006    
  4.9658502E-03  5.2204598E-03   20.27965       5.573807    
  5.2204598E-03  5.4881200E-03   18.82246       6.544646    
  5.4881200E-03  5.7695000E-03   17.66010       6.329629    
  5.7695000E-03  5.9155500E-03   16.27621       10.13801    
  5.9155500E-03  6.0653100E-03   13.99612       11.22209    
  6.0653100E-03  6.2188501E-03   17.90752       8.397705    
  6.2188501E-03  6.3762800E-03   14.30672       10.19264    
  6.3762800E-03  6.5377001E-03   14.19792       10.95569    
  6.5377001E-03  6.5923799E-03   11.96415       16.12709    
  6.5923799E-03  6.6475999E-03   14.69215       19.48493    
  6.6475999E-03  6.7031998E-03   11.47710       17.36615    
  6.7031998E-03  6.8728901E-03   11.79081       9.197269    
  6.8728901E-03  7.0468802E-03   13.50742       7.176362    
  7.0468802E-03  7.2252699E-03   10.54804       10.77353    
  7.2252699E-03  7.4081798E-03   12.13285       8.285340    
  7.4081798E-03  7.5957198E-03   14.14237       8.655893    
  7.5957198E-03  7.7880099E-03   11.90366       9.448787    
  7.7880099E-03  7.9851598E-03   12.10325       9.939115    
  7.9851598E-03  8.1873098E-03   10.91526       12.16144    
  8.1873098E-03  8.3945701E-03   11.82827       9.819087    
  8.3945701E-03  8.6070802E-03   8.823047       12.97802    
  8.6070802E-03  8.8249696E-03   9.169285       13.49306    
  8.8249696E-03  9.0483697E-03   10.06708       11.66533    
  9.0483697E-03  9.2774397E-03   9.397822       11.83718    
  9.2774397E-03  9.5122904E-03   9.559943       13.65134    
  9.5122904E-03  9.7530996E-03   8.788035       9.150832    
  9.7530996E-03  9.9999998E-03   10.22196       9.222561    
  9.9999998E-03  1.0253200E-02   7.464694       10.41961    
  1.0253200E-02  1.0512700E-02   7.161825       10.91357    
  1.0512700E-02  1.0778800E-02   7.666071       11.76523    
  1.0778800E-02  1.1051700E-02   8.216185       9.878612    
  1.1051700E-02  1.1331500E-02   6.997029       9.975895    
  1.1331500E-02  1.1618300E-02   6.674498       11.65966    
  1.1618300E-02  1.1912500E-02   7.351808       9.846888    
  1.1912500E-02  1.2214000E-02   6.245715       11.27793    
  1.2214000E-02  1.2523200E-02   6.539279       12.28994    
  1.2523200E-02  1.2840200E-02   5.334978       10.40424    
  1.2840200E-02  1.3165300E-02   5.799173       8.821094    
  1.3165300E-02  1.3498600E-02   5.247077       9.825419    
  1.3498600E-02  1.3840300E-02   5.785132       11.78720    
  1.3840300E-02  1.4190700E-02   5.612118       10.34013    
  1.4190700E-02  1.4549900E-02   5.473058       12.65499    
  1.4549900E-02  1.4918300E-02   4.898010       11.94705    
  1.4918300E-02  1.5295900E-02   5.031588       11.93603    
  1.5295900E-02  1.5683100E-02   5.360736       10.27700    
  1.5683100E-02  1.6080100E-02   4.875235       12.76194    
  1.6080100E-02  1.6487200E-02   5.179372       11.37665    
  1.6487200E-02  1.6904600E-02   4.491214       9.815995    
  1.6904600E-02  1.7332500E-02   4.397218       13.94207    
  1.7332500E-02  1.7771300E-02   3.496707       10.54659    
  1.7771300E-02  1.8221200E-02   3.530358       12.57347    
  1.8221200E-02  1.8682500E-02   4.493865       11.59538    
  1.8682500E-02  1.9155400E-02   2.965433       10.78100    
  1.9155400E-02  1.9640300E-02   3.305915       12.52858    
  1.9640300E-02  2.0000000E-02   2.734242       11.82428    
