 # Detector n:            1   HeIInflux 
 # N. of energy intervals         260
  1.0000100E-14  2.0000000E-13  9.2743500E+10   1.534450    
  2.0000000E-13  2.9297300E-13  2.0316499E+11   1.459632    
  2.9297300E-13  4.2916701E-13  2.9068545E+11  0.9947652    
  4.2916701E-13  6.2867300E-13  4.1439048E+11  0.7483672    
  6.2867300E-13  9.2092198E-13  5.6304756E+11  0.4928231    
  9.2092198E-13  1.3490300E-12  7.5347958E+11  0.3739358    
  1.3490300E-12  1.9761499E-12  9.7158948E+11  0.2743244    
  1.9761499E-12  2.8947901E-12  1.2166901E+12  0.2290182    
  2.8947901E-12  4.2404799E-12  1.4425014E+12  0.1664482    
  4.2404799E-12  6.2117499E-12  1.5905641E+12  0.1478305    
  6.2117499E-12  9.0993801E-12  1.6127163E+12  0.1234374    
  9.0993801E-12  1.3329400E-11  1.4493373E+12  0.1162562    
  1.3329400E-11  1.9525799E-11  1.1265157E+12  0.1108409    
  1.9525799E-11  2.8602700E-11  7.2916258E+11  0.1148731    
  2.8602700E-11  4.1899099E-11  3.9202882E+11  0.1213946    
  4.1899099E-11  6.1376598E-11  1.8878359E+11  0.1317390    
  6.1376598E-11  8.9908601E-11  8.3239084E+10  0.1589665    
  8.9908601E-11  1.3170399E-10  3.1230138E+10  0.1989627    
  1.3170399E-10  1.9292901E-10  1.1017210E+10  0.2760890    
  1.9292901E-10  2.8261499E-10  4.8212782E+09  0.3345467    
  2.8261499E-10  4.1399401E-10  2.7478541E+09  0.3436741    
  4.1399401E-10  5.3157900E-10  1.9090729E+09  0.4724488    
  5.3157900E-10  6.2506200E-10  1.5053623E+09  0.5587733    
  6.2506200E-10  6.8256001E-10  1.3171908E+09  0.7266273    
  6.8256001E-10  8.3368101E-10  1.1140946E+09  0.5272781    
  8.3368101E-10  8.7642499E-10  9.8477235E+08   1.006869    
  8.7642499E-10  1.1253500E-09  8.2815322E+08  0.4468814    
  1.1253500E-09  1.4449800E-09  6.2684883E+08  0.4741820    
  1.4449800E-09  1.8553900E-09  4.7997821E+08  0.4854827    
  1.8553900E-09  2.3823701E-09  3.6575168E+08  0.4974347    
  2.3823701E-09  3.0590199E-09  2.8213005E+08  0.4930517    
  3.0590199E-09  3.9278598E-09  2.1609915E+08  0.4968720    
  3.9278598E-09  5.0434799E-09  1.6555752E+08  0.4929847    
  5.0434799E-09  6.4759500E-09  1.2781841E+08  0.5075948    
  6.4759500E-09  8.3152898E-09  9.7563712E+07  0.4923023    
  8.3152898E-09  1.0677000E-08  7.5855008E+07  0.4999842    
  1.0677000E-08  1.3709600E-08  5.7945308E+07  0.5089124    
  1.3709600E-08  1.7603501E-08  4.4436632E+07  0.4944078    
  1.7603501E-08  2.2603301E-08  3.4201756E+07  0.5287821    
  2.2603301E-08  2.9023200E-08  2.6112698E+07  0.4885027    
  2.9023200E-08  3.7266499E-08  1.9858362E+07  0.5049978    
  3.7266499E-08  4.7851199E-08  1.5106493E+07  0.5255103    
  4.7851199E-08  6.1442101E-08  1.1616458E+07  0.5675374    
  6.1442101E-08  7.8893301E-08   8810798.      0.5482447    
  7.8893301E-08  1.0130100E-07   6760177.      0.5702922    
  1.0130100E-07  1.3007300E-07   5127262.      0.5428877    
  1.3007300E-07  1.6701701E-07   3890858.      0.5910668    
  1.6701701E-07  2.1445400E-07   2952847.      0.5630218    
  2.1445400E-07  2.7536399E-07   2248713.      0.6085507    
  2.7536399E-07  3.5357499E-07   1711588.      0.5740297    
  3.5357499E-07  4.5399901E-07   1266204.      0.5626767    
  4.5399901E-07  5.8294700E-07   980496.2      0.5865566    
  5.8294700E-07  7.4851800E-07   745836.9      0.6168465    
  7.4851800E-07  9.6111603E-07   556746.0      0.6382524    
  9.6111603E-07  1.2341000E-06   418366.2      0.6372615    
  1.2341000E-06  1.3638900E-06   340998.5      0.9305544    
  1.3638900E-06  1.5073300E-06   306051.1       1.006727    
  1.5073300E-06  1.5846100E-06   279237.0       1.431844    
  1.5846100E-06  1.6658601E-06   261727.3       1.422649    
  1.6658601E-06  1.8410600E-06   246238.5       1.026227    
  1.8410600E-06  2.0346799E-06   229867.1      0.9483855    
  2.0346799E-06  2.2486699E-06   176938.9       1.069047    
  2.2486699E-06  2.4851699E-06   170185.1      0.9748557    
  2.4851699E-06  2.6125899E-06   150141.9       1.458267    
  2.6125899E-06  2.7465401E-06   139108.4       1.567947    
  2.7465401E-06  2.8634900E-06   135352.8       1.612964    
  2.8634900E-06  3.0353899E-06   130692.7       1.514319    
  3.0353899E-06  3.3546301E-06   121840.0       1.078745    
  3.3546301E-06  3.7074401E-06   107300.3       1.084311    
  3.7074401E-06  4.0973500E-06   96717.78       1.042061    
  4.0973500E-06  4.3074201E-06   85434.41       1.523189    
  4.3074201E-06  4.5282700E-06   78985.55       1.560842    
  4.5282700E-06  5.0045101E-06   74960.35       1.159192    
  5.0045101E-06  5.5308401E-06   75243.98       1.101038    
  5.5308401E-06  6.2672698E-06   48547.48       1.151982    
  6.2672698E-06  7.1017398E-06   50375.66      0.9609436    
  7.1017398E-06  8.0473301E-06   42628.11       1.062150    
  8.0473301E-06  9.1188203E-06   37817.39       1.003191    
  9.1188203E-06  1.0333000E-05   31597.29       1.059491    
  1.0333000E-05  1.1708800E-05   27344.58       1.101155    
  1.1708800E-05  1.3267800E-05   24000.16       1.098607    
  1.3267800E-05  1.5034400E-05   20082.10       1.073353    
  1.5034400E-05  1.7036200E-05   17384.24       1.084739    
  1.7036200E-05  1.9304500E-05   14848.48       1.159090    
  1.9304500E-05  2.1334799E-05   12555.68       1.277491    
  2.1334799E-05  2.1874899E-05   11263.45       2.607597    
  2.1874899E-05  2.3578599E-05   11228.21       1.405361    
  2.3578599E-05  2.4175501E-05   10628.73       2.621281    
  2.4175501E-05  2.4787500E-05   10040.43       2.561193    
  2.4787500E-05  2.6058400E-05   9657.822       1.771186    
  2.6058400E-05  2.8087899E-05   9692.914       1.509140    
  2.8087899E-05  3.1827800E-05   9806.789       1.128307    
  3.1827800E-05  3.4306700E-05   5714.711       1.732344    
  3.4306700E-05  3.5175199E-05   2612.085       4.217167    
  3.5175199E-05  3.6065601E-05   2355.848       4.393428    
  3.6065601E-05  4.0867701E-05   3503.529       1.648631    
  4.0867701E-05  4.6309200E-05   4228.373       1.409241    
  4.6309200E-05  5.2475199E-05   3964.345       1.353683    
  5.2475199E-05  5.6562199E-05   3535.226       1.542683    
  5.6562199E-05  5.9462200E-05   3248.022       2.153625    
  5.9462200E-05  6.2510902E-05   3095.280       2.205936    
  6.2510902E-05  6.7379500E-05   2981.929       1.624772    
  6.7379500E-05  7.6350902E-05   2988.187       1.240465    
  7.6350902E-05  8.6516899E-05   2001.618       1.514724    
  8.6516899E-05  9.8036500E-05   1105.477       1.850354    
  9.8036500E-05  1.1109000E-04   1443.054       1.413325    
  1.1109000E-04  1.1678600E-04   1433.262       2.172274    
  1.1678600E-04  1.2277300E-04   978.6509       2.664360    
  1.2277300E-04  1.2906799E-04   1403.073       2.072540    
  1.2906799E-04  1.3568600E-04   1433.111       2.085457    
  1.3568600E-04  1.4264201E-04   1017.480       2.219328    
  1.4264201E-04  1.4995600E-04   762.4211       2.770299    
  1.4995600E-04  1.5764400E-04   735.3796       2.746814    
  1.5764400E-04  1.6163501E-04   555.0068       4.199601    
  1.6163501E-04  1.6572700E-04   675.6086       3.631551    
  1.6572700E-04  1.6992200E-04   736.5413       3.647681    
  1.6992200E-04  1.7422400E-04   767.9988       3.525329    
  1.7422400E-04  1.8315599E-04   766.9898       2.418676    
  1.8315599E-04  1.9254700E-04   754.6972       2.508758    
  1.9254700E-04  2.0241900E-04   690.0586       2.315457    
  2.0241900E-04  2.1279699E-04   531.7128       2.703416    
  2.1279699E-04  2.2370800E-04   515.4944       2.759233    
  2.2370800E-04  2.3517800E-04   519.5927       2.498843    
  2.3517800E-04  2.4723500E-04   529.2390       2.376824    
  2.4723500E-04  2.5991100E-04   522.1716       2.552517    
  2.5991100E-04  2.7323700E-04   543.1407       2.216827    
  2.7323700E-04  2.8015400E-04   490.2283       3.519949    
  2.8015400E-04  2.8724599E-04   381.7767       3.648999    
  2.8724599E-04  2.9451799E-04   373.7898       3.883876    
  2.9451799E-04  3.0197401E-04   390.1617       3.506335    
  3.0197401E-04  3.0961799E-04   377.1208       3.644001    
  3.0961799E-04  3.1745600E-04   334.1079       3.631271    
  3.1745600E-04  3.3373301E-04   353.0583       2.626199    
  3.3373301E-04  3.5084400E-04   370.5730       2.451943    
  3.5084400E-04  3.6883200E-04   317.7872       2.701342    
  3.6883200E-04  3.8774201E-04   289.9111       2.641176    
  3.8774201E-04  4.0762199E-04   281.1856       2.441188    
  4.0762199E-04  4.2852099E-04   229.3839       2.526096    
  4.2852099E-04  4.5049199E-04   207.6626       2.606564    
  4.5049199E-04  4.7358900E-04   200.2877       2.592896    
  4.7358900E-04  4.9787102E-04   209.7146       2.623930    
  4.9787102E-04  5.1047403E-04   197.7841       3.416317    
  5.1047403E-04  5.2339700E-04   198.3648       3.810232    
  5.2339700E-04  5.3664698E-04   165.7876       3.728224    
  5.3664698E-04  5.5023201E-04   171.1819       3.783597    
  5.5023201E-04  5.7844300E-04   164.6431       2.580529    
  5.7844300E-04  6.0810102E-04   149.1461       2.660825    
  6.0810102E-04  6.3927902E-04   133.7091       2.732800    
  6.3927902E-04  6.7205500E-04   117.9856       2.725306    
  6.7205500E-04  7.0651202E-04   113.9516       2.698728    
  7.0651202E-04  7.4273598E-04   97.83163       2.602638    
  7.4273598E-04  7.8081700E-04   86.02797       2.727762    
  7.8081700E-04  8.2085002E-04   66.73358       2.877877    
  8.2085002E-04  8.6293602E-04   64.12241       2.637855    
  8.6293602E-04  9.0717903E-04   56.91757       2.956565    
  9.0717903E-04  9.5369201E-04   51.15689       2.940147    
  9.5369201E-04  9.6163998E-04   47.02134       6.356795    
  9.6163998E-04  9.7783399E-04   43.85404       4.732086    
  9.7783399E-04  1.0025901E-03   47.07497       3.799512    
  1.0025901E-03  1.0539900E-03   42.05755       2.802262    
  1.0539900E-03  1.1080300E-03   41.47808       2.616764    
  1.1080300E-03  1.1648400E-03   39.34362       2.695669    
  1.1648400E-03  1.1943300E-03   37.51787       3.910823    
  1.1943300E-03  1.2245600E-03   38.17543       3.601899    
  1.2245600E-03  1.2873500E-03   36.70156       2.504731    
  1.2873500E-03  1.3533500E-03   36.95539       2.698128    
  1.3533500E-03  1.4227401E-03   37.66390       2.554542    
  1.4227401E-03  1.4956900E-03   38.34632       2.505057    
  1.4956900E-03  1.5335500E-03   38.23029       3.755101    
  1.5335500E-03  1.5723699E-03   35.88592       3.629857    
  1.5723699E-03  1.6121800E-03   37.28368       3.468150    
  1.6121800E-03  1.6529900E-03   34.56696       3.676864    
  1.6529900E-03  1.7377400E-03   36.24203       2.740156    
  1.7377400E-03  1.8268300E-03   33.98602       2.639331    
  1.8268300E-03  1.8730800E-03   35.39059       3.876649    
  1.8730800E-03  1.9205000E-03   34.63305       3.780163    
  1.9205000E-03  1.9691200E-03   31.51814       3.910012    
  1.9691200E-03  2.0189700E-03   33.48025       3.707099    
  2.0189700E-03  2.1224800E-03   32.35895       2.631438    
  2.1224800E-03  2.2313001E-03   31.08134       2.863462    
  2.2313001E-03  2.2688799E-03   29.42994       4.619083    
  2.2688799E-03  2.3068599E-03   29.41362       5.054681    
  2.3068599E-03  2.3457000E-03   28.55321       4.717662    
  2.3457000E-03  2.3652499E-03   30.19362       6.421093    
  2.3652499E-03  2.3852000E-03   34.00022       6.153355    
  2.3852000E-03  2.4251300E-03   30.45635       4.541735    
  2.4251300E-03  2.4659701E-03   28.73760       4.726440    
  2.4659701E-03  2.5923999E-03   24.22377       2.848773    
  2.5923999E-03  2.7253199E-03   24.82240       2.849927    
  2.7253199E-03  2.8650500E-03   21.27619       2.867393    
  2.8650500E-03  3.0119400E-03   21.29842       3.222765    
  3.0119400E-03  3.0881900E-03   18.93155       4.183180    
  3.0881900E-03  3.1663701E-03   18.68308       4.155209    
  3.1663701E-03  3.2465300E-03   17.19823       4.582691    
  3.2465300E-03  3.3287101E-03   17.47674       4.490429    
  3.3287101E-03  3.4993801E-03   16.73956       3.263633    
  3.4993801E-03  3.6787901E-03   15.90900       3.309443    
  3.6787901E-03  3.8674099E-03   16.09080       3.227098    
  3.8674099E-03  4.0656999E-03   15.36330       2.929012    
  4.0656999E-03  4.2741499E-03   14.24564       3.185214    
  4.2741499E-03  4.4932901E-03   14.01011       2.968810    
  4.4932901E-03  4.6070400E-03   12.56814       4.333019    
  4.6070400E-03  4.7236700E-03   14.09610       4.640792    
  4.7236700E-03  4.8432499E-03   12.59463       4.597040    
  4.8432499E-03  4.9658502E-03   12.13132       4.650995    
  4.9658502E-03  5.2204598E-03   11.52981       3.389470    
  5.2204598E-03  5.4881200E-03   11.21379       3.147234    
  5.4881200E-03  5.7695000E-03   10.72299       3.220666    
  5.7695000E-03  5.9155500E-03   10.13306       4.718804    
  5.9155500E-03  6.0653100E-03   9.728512       4.504118    
  6.0653100E-03  6.2188501E-03   9.737334       4.778418    
  6.2188501E-03  6.3762800E-03   9.284554       4.371676    
  6.3762800E-03  6.5377001E-03   9.189868       4.770853    
  6.5377001E-03  6.5923799E-03   8.247978       7.554522    
  6.5923799E-03  6.6475999E-03   9.193604       8.034087    
  6.6475999E-03  6.7031998E-03   9.443206       8.785452    
  6.7031998E-03  6.8728901E-03   8.233133       4.724597    
  6.8728901E-03  7.0468802E-03   8.021142       4.783338    
  7.0468802E-03  7.2252699E-03   7.697688       4.812455    
  7.2252699E-03  7.4081798E-03   6.985843       4.939781    
  7.4081798E-03  7.5957198E-03   7.378635       4.781479    
  7.5957198E-03  7.7880099E-03   7.187069       5.114397    
  7.7880099E-03  7.9851598E-03   7.127727       4.782239    
  7.9851598E-03  8.1873098E-03   7.430294       4.575623    
  8.1873098E-03  8.3945701E-03   6.481725       4.500370    
  8.3945701E-03  8.6070802E-03   6.672579       5.052396    
  8.6070802E-03  8.8249696E-03   6.028062       5.115319    
  8.8249696E-03  9.0483697E-03   6.120407       4.802066    
  9.0483697E-03  9.2774397E-03   5.985597       4.504421    
  9.2774397E-03  9.5122904E-03   5.494864       4.857451    
  9.5122904E-03  9.7530996E-03   5.227718       4.942341    
  9.7530996E-03  9.9999998E-03   5.708670       4.921053    
  9.9999998E-03  1.0253200E-02   4.708674       5.296014    
  1.0253200E-02  1.0512700E-02   5.285640       5.038702    
  1.0512700E-02  1.0778800E-02   4.908196       5.060929    
  1.0778800E-02  1.1051700E-02   5.107888       4.918697    
  1.1051700E-02  1.1331500E-02   4.484328       4.830232    
  1.1331500E-02  1.1618300E-02   4.530073       4.987237    
  1.1618300E-02  1.1912500E-02   4.518162       4.593579    
  1.1912500E-02  1.2214000E-02   4.358597       5.003596    
  1.2214000E-02  1.2523200E-02   4.425041       4.984016    
  1.2523200E-02  1.2840200E-02   3.968446       5.249795    
  1.2840200E-02  1.3165300E-02   3.950583       5.260530    
  1.3165300E-02  1.3498600E-02   4.001493       4.918899    
  1.3498600E-02  1.3840300E-02   3.759905       4.727952    
  1.3840300E-02  1.4190700E-02   3.248439       5.392541    
  1.4190700E-02  1.4549900E-02   3.646680       5.202472    
  1.4549900E-02  1.4918300E-02   3.348006       5.269053    
  1.4918300E-02  1.5295900E-02   3.213545       5.867788    
  1.5295900E-02  1.5683100E-02   3.630192       4.947639    
  1.5683100E-02  1.6080100E-02   3.295079       5.164046    
  1.6080100E-02  1.6487200E-02   3.176424       5.202664    
  1.6487200E-02  1.6904600E-02   3.018316       4.931545    
  1.6904600E-02  1.7332500E-02   2.739673       5.162353    
  1.7332500E-02  1.7771300E-02   2.811181       5.102516    
  1.7771300E-02  1.8221200E-02   2.583590       5.593776    
  1.8221200E-02  1.8682500E-02   2.642828       5.824833    
  1.8682500E-02  1.9155400E-02   2.515753       5.553367    
  1.9155400E-02  1.9640300E-02   2.471179       5.322388    
  1.9640300E-02  2.0000000E-02   2.351559       6.591566    
