 # Detector n:            1   HeIIcoll  
 # N. of energy intervals         260
  1.0000100E-14  2.0000000E-13  2.9969947E+10   26.87486    
  2.0000000E-13  2.9297300E-13  8.6135448E+10   11.35765    
  2.9297300E-13  4.2916701E-13  1.0407144E+11   10.35999    
  4.2916701E-13  6.2867300E-13  1.6052273E+11   25.04397    
  6.2867300E-13  9.2092198E-13  2.5309281E+11   8.094970    
  9.2092198E-13  1.3490300E-12  3.0140206E+11   10.74865    
  1.3490300E-12  1.9761499E-12  4.7450384E+11   9.026814    
  1.9761499E-12  2.8947901E-12  6.2417207E+11   5.151559    
  2.8947901E-12  4.2404799E-12  7.2824285E+11   4.732718    
  4.2404799E-12  6.2117499E-12  8.4498127E+11   2.417839    
  6.2117499E-12  9.0993801E-12  8.5945890E+11  0.4487440    
  9.0993801E-12  1.3329400E-11  7.6694435E+11   1.299493    
  1.3329400E-11  1.9525799E-11  6.0131384E+11   1.290768    
  1.9525799E-11  2.8602700E-11  3.8130146E+11   1.820243    
  2.8602700E-11  4.1899099E-11  1.7832170E+11   2.191662    
  4.1899099E-11  6.1376598E-11  7.6343976E+10   2.688559    
  6.1376598E-11  8.9908601E-11  2.8502884E+10   3.540321    
  8.9908601E-11  1.3170399E-10  1.1068770E+10   5.765536    
  1.3170399E-10  1.9292901E-10  4.2016192E+09   5.968136    
  1.9292901E-10  2.8261499E-10  2.2020628E+09   1.589840    
  2.8261499E-10  4.1399401E-10  1.2402188E+09   3.173689    
  4.1399401E-10  5.3157900E-10  8.7087008E+08   3.711618    
  5.3157900E-10  6.2506200E-10  7.2425216E+08   5.043783    
  6.2506200E-10  6.8256001E-10  5.9878758E+08   1.206791    
  6.8256001E-10  8.3368101E-10  5.5197600E+08   2.636120    
  8.3368101E-10  8.7642499E-10  4.5118797E+08   5.241128    
  8.7642499E-10  1.1253500E-09  3.9100304E+08   2.022108    
  1.1253500E-09  1.4449800E-09  2.9634835E+08   4.711818    
  1.4449800E-09  1.8553900E-09  2.1533690E+08   2.488074    
  1.8553900E-09  2.3823701E-09  1.7613907E+08   3.730557    
  2.3823701E-09  3.0590199E-09  1.3541445E+08   4.497825    
  3.0590199E-09  3.9278598E-09  9.8910928E+07   3.768287    
  3.9278598E-09  5.0434799E-09  7.9046344E+07   6.002436    
  5.0434799E-09  6.4759500E-09  5.9270660E+07   2.972044    
  6.4759500E-09  8.3152898E-09  4.4489260E+07   2.774115    
  8.3152898E-09  1.0677000E-08  3.4799500E+07   2.370768    
  1.0677000E-08  1.3709600E-08  2.8418414E+07   2.684027    
  1.3709600E-08  1.7603501E-08  2.0659252E+07   4.771979    
  1.7603501E-08  2.2603301E-08  1.5824318E+07   2.025757    
  2.2603301E-08  2.9023200E-08  1.1899074E+07   5.878340    
  2.9023200E-08  3.7266499E-08   9071983.       1.860135    
  3.7266499E-08  4.7851199E-08   6959576.       3.536326    
  4.7851199E-08  6.1442101E-08   5482151.       4.742905    
  6.1442101E-08  7.8893301E-08   4052884.       1.468554    
  7.8893301E-08  1.0130100E-07   3412737.       2.359725    
  1.0130100E-07  1.3007300E-07   2171104.       2.543304    
  1.3007300E-07  1.6701701E-07   1766709.       1.951098    
  1.6701701E-07  2.1445400E-07   1308024.       3.729731    
  2.1445400E-07  2.7536399E-07   1017573.       2.902144    
  2.7536399E-07  3.5357499E-07   818453.7       4.809029    
  3.5357499E-07  4.5399901E-07   652776.1       1.838104    
  4.5399901E-07  5.8294700E-07   437231.1       4.569335    
  5.8294700E-07  7.4851800E-07   323605.7       4.222984    
  7.4851800E-07  9.6111603E-07   245769.2       3.724515    
  9.6111603E-07  1.2341000E-06   188071.5       1.716652    
  1.2341000E-06  1.3638900E-06   165138.9       3.042319    
  1.3638900E-06  1.5073300E-06   142587.9       5.064172    
  1.5073300E-06  1.5846100E-06   129612.1       6.695295    
  1.5846100E-06  1.6658601E-06   120692.9       13.55262    
  1.6658601E-06  1.8410600E-06   100751.1       3.941711    
  1.8410600E-06  2.0346799E-06   96232.38       5.298841    
  2.0346799E-06  2.2486699E-06   79216.95       2.822852    
  2.2486699E-06  2.4851699E-06   76713.41       6.917557    
  2.4851699E-06  2.6125899E-06   65970.92       6.236097    
  2.6125899E-06  2.7465401E-06   63277.88       8.139553    
  2.7465401E-06  2.8634900E-06   68883.12       6.865344    
  2.8634900E-06  3.0353899E-06   68870.31       8.163393    
  3.0353899E-06  3.3546301E-06   52006.61       5.780231    
  3.3546301E-06  3.7074401E-06   46463.77       2.657372    
  3.7074401E-06  4.0973500E-06   42941.70       6.010171    
  4.0973500E-06  4.3074201E-06   46022.76       9.355032    
  4.3074201E-06  4.5282700E-06   29184.62       15.16554    
  4.5282700E-06  5.0045101E-06   32070.52       7.204414    
  5.0045101E-06  5.5308401E-06   30882.84       4.104270    
  5.5308401E-06  6.2672698E-06   22263.00       8.153327    
  6.2672698E-06  7.1017398E-06   20655.77       4.428220    
  7.1017398E-06  8.0473301E-06   18007.10       5.717054    
  8.0473301E-06  9.1188203E-06   17919.51       5.542962    
  9.1188203E-06  1.0333000E-05   13505.79       4.273503    
  1.0333000E-05  1.1708800E-05   12836.60       6.512452    
  1.1708800E-05  1.3267800E-05   10114.96       6.899634    
  1.3267800E-05  1.5034400E-05   8807.652       2.144571    
  1.5034400E-05  1.7036200E-05   8123.472       11.06229    
  1.7036200E-05  1.9304500E-05   5995.212       4.798707    
  1.9304500E-05  2.1334799E-05   5248.125       4.558028    
  2.1334799E-05  2.1874899E-05   3244.749       13.66260    
  2.1874899E-05  2.3578599E-05   4731.606       7.953868    
  2.3578599E-05  2.4175501E-05   3640.478       9.677421    
  2.4175501E-05  2.4787500E-05   4008.752       21.57096    
  2.4787500E-05  2.6058400E-05   4246.844       5.759365    
  2.6058400E-05  2.8087899E-05   3142.881       15.68262    
  2.8087899E-05  3.1827800E-05   4329.172       10.86859    
  3.1827800E-05  3.4306700E-05   2912.114       9.429646    
  3.4306700E-05  3.5175199E-05   968.3455       38.49002    
  3.5175199E-05  3.6065601E-05   1495.484       10.07818    
  3.6065601E-05  4.0867701E-05   1590.691       5.874426    
  4.0867701E-05  4.6309200E-05   2059.914       6.038073    
  4.6309200E-05  5.2475199E-05   1555.798       4.193110    
  5.2475199E-05  5.6562199E-05   1387.165       15.13710    
  5.6562199E-05  5.9462200E-05   1134.023       11.71824    
  5.9462200E-05  6.2510902E-05   1261.907       14.65865    
  6.2510902E-05  6.7379500E-05   1091.240       10.30468    
  6.7379500E-05  7.6350902E-05   1377.705       5.249476    
  7.6350902E-05  8.6516899E-05   960.0454       9.547589    
  8.6516899E-05  9.8036500E-05   645.8964       6.888892    
  9.8036500E-05  1.1109000E-04   631.5856       3.726649    
  1.1109000E-04  1.1678600E-04   593.7303       16.78770    
  1.1678600E-04  1.2277300E-04   460.0392       9.128709    
  1.2277300E-04  1.2906799E-04   621.9507       13.55161    
  1.2906799E-04  1.3568600E-04   652.1840       5.421667    
  1.3568600E-04  1.4264201E-04   461.6588       15.68322    
  1.4264201E-04  1.4995600E-04   363.2963       10.57206    
  1.4995600E-04  1.5764400E-04   317.7500       14.34438    
  1.5764400E-04  1.6163501E-04   372.5732       33.60769    
  1.6163501E-04  1.6572700E-04   247.0820       6.666667    
  1.6572700E-04  1.6992200E-04   448.6442       30.86067    
  1.6992200E-04  1.7422400E-04   249.2795       27.00309    
  1.7422400E-04  1.8315599E-04   298.8347       15.81139    
  1.8315599E-04  1.9254700E-04   289.5647       12.82905    
  1.9254700E-04  2.0241900E-04   347.1074       15.06069    
  2.0241900E-04  2.1279699E-04   270.5385       15.36762    
  2.1279699E-04  2.2370800E-04   230.9216       14.72965    
  2.2370800E-04  2.3517800E-04   245.1080       6.428244    
  2.3517800E-04  2.4723500E-04   204.3206       25.59826    
  2.4723500E-04  2.5991100E-04   231.0546       8.055189    
  2.5991100E-04  2.7323700E-04   229.7078       9.521905    
  2.7323700E-04  2.8015400E-04   279.3659       5.103104    
  2.8015400E-04  2.8724599E-04   210.8860       27.22744    
  2.8724599E-04  2.9451799E-04   203.7223       22.97825    
  2.9451799E-04  3.0197401E-04   149.5365       40.65484    
  3.0197401E-04  3.0961799E-04   166.7725       26.24319    
  3.0961799E-04  3.1745600E-04   167.7020       28.73076    
  3.1745600E-04  3.3373301E-04   130.6396       13.92501    
  3.3373301E-04  3.5084400E-04   143.0178       5.592471    
  3.5084400E-04  3.6883200E-04   169.3288       11.77810    
  3.6883200E-04  3.8774201E-04   122.7175       10.34990    
  3.8774201E-04  4.0762199E-04   138.7587       27.53510    
  4.0762199E-04  4.2852099E-04   105.5330       18.00206    
  4.2852099E-04  4.5049199E-04   112.9124       16.30101    
  4.5049199E-04  4.7358900E-04   95.54517       4.781461    
  4.7358900E-04  4.9787102E-04   103.5793       5.248639    
  4.9787102E-04  5.1047403E-04   82.99444       10.34483    
  5.1047403E-04  5.2339700E-04   69.46574       27.01450    
  5.2339700E-04  5.3664698E-04   57.40654       19.28135    
  5.3664698E-04  5.5023201E-04   74.67257       8.838836    
  5.5023201E-04  5.7844300E-04   64.70847       13.55862    
  5.7844300E-04  6.0810102E-04   68.14128       11.16484    
  6.0810102E-04  6.3927902E-04   68.72725       8.215213    
  6.3927902E-04  6.7205500E-04   51.52141       8.897565    
  6.7205500E-04  7.0651202E-04   56.06507       8.742425    
  7.0651202E-04  7.4273598E-04   57.39972       3.827328    
  7.4273598E-04  7.8081700E-04   37.17575       6.733005    
  7.8081700E-04  8.2085002E-04   42.80349       9.855502    
  8.2085002E-04  8.6293602E-04   33.03135       11.62791    
  8.6293602E-04  9.0717903E-04   31.36216       5.757772    
  9.0717903E-04  9.5369201E-04   34.20232       3.310905    
  9.5369201E-04  9.6163998E-04   28.34048       22.58770    
  9.6163998E-04  9.7783399E-04   32.08804       3.030303    
  9.7783399E-04  1.0025901E-03   28.95285       8.240390    
  1.0025901E-03  1.0539900E-03   23.39282       7.230516    
  1.0539900E-03  1.1080300E-03   25.08914       11.07646    
  1.1080300E-03  1.1648400E-03   18.38750       10.80466    
  1.1648400E-03  1.1943300E-03   20.74087       16.61705    
  1.1943300E-03  1.2245600E-03   22.16561       7.865629    
  1.2245600E-03  1.2873500E-03   20.35741       6.260587    
  1.2873500E-03  1.3533500E-03   20.17489       3.288870    
  1.3533500E-03  1.4227401E-03   17.69773       12.46589    
  1.4227401E-03  1.4956900E-03   21.29393       9.863043    
  1.4956900E-03  1.5335500E-03   23.11543       13.73398    
  1.5335500E-03  1.5723699E-03   19.38928       9.707536    
  1.5723699E-03  1.6121800E-03   22.35699       6.956619    
  1.6121800E-03  1.6529900E-03   22.59314       10.11236    
  1.6529900E-03  1.7377400E-03   23.56070       8.098993    
  1.7377400E-03  1.8268300E-03   20.43098       5.439281    
  1.8268300E-03  1.8730800E-03   23.03508       5.097370    
  1.8730800E-03  1.9205000E-03   22.63901       13.08300    
  1.9205000E-03  1.9691200E-03   19.27181       6.000687    
  1.9691200E-03  2.0189700E-03   19.61768       14.03692    
  2.0189700E-03  2.1224800E-03   18.07622       10.15949    
  2.1224800E-03  2.2313001E-03   18.65487       5.613020    
  2.2313001E-03  2.2688799E-03   19.01310       14.05974    
  2.2688799E-03  2.3068599E-03   15.04324       22.23237    
  2.3068599E-03  2.3457000E-03   15.74350       15.87536    
  2.3457000E-03  2.3652499E-03   24.33307       20.72751    
  2.3652499E-03  2.3852000E-03   17.61412       21.64069    
  2.3852000E-03  2.4251300E-03   17.38839       11.62791    
  2.4251300E-03  2.4659701E-03   14.03402       11.78030    
  2.4659701E-03  2.5923999E-03   15.16791       5.818638    
  2.5923999E-03  2.7253199E-03   15.24822       10.15145    
  2.7253199E-03  2.8650500E-03   13.59647       4.223535    
  2.8650500E-03  3.0119400E-03   13.48456       6.257782    
  3.0119400E-03  3.0881900E-03   13.53515       7.092052    
  3.0881900E-03  3.1663701E-03   12.89658       10.87856    
  3.1663701E-03  3.2465300E-03   12.99909       6.444623    
  3.2465300E-03  3.3287101E-03   9.941053       10.81637    
  3.3287101E-03  3.4993801E-03   10.83127       3.753461    
  3.4993801E-03  3.6787901E-03   11.02440       16.61025    
  3.6787901E-03  3.8674099E-03   10.73666       8.310680    
  3.8674099E-03  4.0656999E-03   10.88976       7.260558    
  4.0656999E-03  4.2741499E-03   9.311128       14.70486    
  4.2741499E-03  4.4932901E-03   8.642242       13.68412    
  4.4932901E-03  4.6070400E-03   9.794124       15.21451    
  4.6070400E-03  4.7236700E-03   9.259756       12.55109    
  4.7236700E-03  4.8432499E-03   9.931545       10.58301    
  4.8432499E-03  4.9658502E-03   8.037327       9.233998    
  4.9658502E-03  5.2204598E-03   8.650260       2.868877    
  5.2204598E-03  5.4881200E-03   6.935802       10.92284    
  5.4881200E-03  5.7695000E-03   6.495638       5.807191    
  5.7695000E-03  5.9155500E-03   6.294056       8.571430    
  5.9155500E-03  6.0653100E-03   6.045172       27.38087    
  6.0653100E-03  6.2188501E-03   4.396535       23.88863    
  6.2188501E-03  6.3762800E-03   6.089647       5.471011    
  6.3762800E-03  6.5377001E-03   6.198539       15.04451    
  6.5377001E-03  6.5923799E-03   6.673412       23.07692    
  6.5923799E-03  6.6475999E-03   6.130253       30.42903    
  6.6475999E-03  6.7031998E-03   8.158929       27.00309    
  6.7031998E-03  6.8728901E-03   5.232296       6.176948    
  6.8728901E-03  7.0468802E-03   6.352797       22.94157    
  7.0468802E-03  7.2252699E-03   7.122822       16.27907    
  7.2252699E-03  7.4081798E-03   2.954931       14.34438    
  7.4081798E-03  7.5957198E-03   4.719683       28.36543    
  7.5957198E-03  7.7880099E-03   6.132676       25.24122    
  7.7880099E-03  7.9851598E-03   4.963065       11.01823    
  7.9851598E-03  8.1873098E-03   5.241890       15.15152    
  8.1873098E-03  8.3945701E-03   3.468551       15.74592    
  8.3945701E-03  8.6070802E-03   3.600126       23.94596    
  8.6070802E-03  8.8249696E-03   3.419757       18.92423    
  8.8249696E-03  9.0483697E-03   2.779611       14.34438    
  9.0483697E-03  9.2774397E-03   3.989117       22.20578    
  9.2774397E-03  9.5122904E-03   4.422920       31.54120    
  9.5122904E-03  9.7530996E-03   3.032400       35.59026    
  9.7530996E-03  9.9999998E-03   3.467921       19.28135    
  9.9999998E-03  1.0253200E-02   3.748919       17.73885    
  1.0253200E-02  1.0512700E-02   3.134872       9.118354    
  1.0512700E-02  1.0778800E-02   3.119852       22.50389    
  1.0778800E-02  1.1051700E-02   2.365820       10.20621    
  1.1051700E-02  1.1331500E-02   2.650627       36.85139    
  1.1331500E-02  1.1618300E-02   2.347541       17.67767    
  1.1618300E-02  1.1912500E-02   2.629917       19.24501    
  1.1912500E-02  1.2214000E-02   3.059490       27.35506    
  1.2214000E-02  1.2523200E-02   1.597117       31.05137    
  1.2523200E-02  1.2840200E-02   2.316376       17.67767    
  1.2840200E-02  1.3165300E-02   2.020985       24.74358    
  1.3165300E-02  1.3498600E-02   2.304121       27.00309    
  1.3498600E-02  1.3840300E-02   1.580670       17.40777    
  1.3840300E-02  1.4190700E-02   3.154210       11.73631    
  1.4190700E-02  1.4549900E-02   1.717435       19.24501    
  1.4549900E-02  1.4918300E-02   2.428146       24.25356    
  1.4918300E-02  1.5295900E-02   1.854372       19.35855    
  1.5295900E-02  1.5683100E-02  0.7120473       38.29708    
  1.5683100E-02  1.6080100E-02   1.422033       50.33223    
  1.6080100E-02  1.6487200E-02   1.703811       13.60828    
  1.6487200E-02  1.6904600E-02   1.701440       27.21655    
  1.6904600E-02  1.7332500E-02   1.982488       18.44278    
  1.7332500E-02  1.7771300E-02   1.555074       31.05136    
  1.7771300E-02  1.8221200E-02   1.270270       42.06599    
  1.8221200E-02  1.8682500E-02   2.676754       17.97711    
  1.8682500E-02  1.9155400E-02   1.406159       38.29708    
  1.9155400E-02  1.9640300E-02   1.963867       14.28571    
  1.9640300E-02  2.0000000E-02   1.735055       45.81229    
